# G(r) - reduced PDF
# # r (A)   G(r) (A^-2)   sigma_G(r)
0.000000 0.000000 0.000000
0.020000 -0.009013 0.045548
0.040000 -0.018870 0.086495
0.060000 -0.030213 0.118838
0.080000 -0.043332 0.139704
0.100000 -0.058090 0.147740
0.120000 -0.073963 0.143367
0.140000 -0.090156 0.128918
0.160000 -0.105798 0.108830
0.180000 -0.120147 0.089999
0.200000 -0.132768 0.080970
0.220000 -0.143638 0.085559
0.240000 -0.153150 0.097903
0.260000 -0.162026 0.110153
0.280000 -0.171142 0.118004
0.300000 -0.181322 0.120335
0.320000 -0.193136 0.118100
0.340000 -0.206770 0.113469
0.360000 -0.221973 0.108952
0.380000 -0.238117 0.106395
0.400000 -0.254346 0.106244
0.420000 -0.269775 0.107656
0.440000 -0.283706 0.109359
0.460000 -0.295796 0.110460
0.480000 -0.306139 0.110715
0.500000 -0.315249 0.110392
0.520000 -0.323943 0.109937
0.540000 -0.333142 0.109675
0.560000 -0.343658 0.109682
0.580000 -0.355992 0.109838
0.600000 -0.370216 0.109974
0.620000 -0.385945 0.109997
0.640000 -0.402430 0.109914
0.660000 -0.418728 0.109795
0.680000 -0.433931 0.109702
0.700000 -0.447384 0.109657
0.720000 -0.458844 0.109647
0.740000 -0.468546 0.109658
0.760000 -0.477152 0.109686
0.780000 -0.485602 0.109742
0.800000 -0.494884 0.109829
0.820000 -0.505805 0.109931
0.840000 -0.518785 0.110011
0.860000 -0.533755 0.110041
0.880000 -0.550161 0.110011
0.900000 -0.567090 0.109943
0.920000 -0.583486 0.109873
0.940000 -0.598400 0.109832
0.960000 -0.611224 0.109828
0.980000 -0.621846 0.109844
1.000000 -0.630690 0.109849
1.020000 -0.638620 0.109819
1.040000 -0.646746 0.109750
1.060000 -0.656156 0.109659
1.080000 -0.667653 0.109579
1.100000 -0.681548 0.109543
1.120000 -0.697574 0.109570
1.140000 -0.714931 0.109659
1.160000 -0.732472 0.109788
1.180000 -0.748967 0.109924
1.200000 -0.763408 0.110033
1.220000 -0.775260 0.110089
1.240000 -0.784609 0.110085
1.260000 -0.792167 0.110032
1.280000 -0.799112 0.109954
1.300000 -0.806821 0.109878
1.320000 -0.816534 0.109823
1.340000 -0.829042 0.109795
1.360000 -0.844469 0.109789
1.380000 -0.862216 0.109792
1.400000 -0.881074 0.109792
1.420000 -0.899495 0.109785
1.440000 -0.915966 0.109777
1.460000 -0.929386 0.109776
1.480000 -0.939369 0.109787
1.500000 -0.946382 0.109810
1.520000 -0.951676 0.109838
1.540000 -0.957024 0.109860
1.560000 -0.964302 0.109868
1.580000 -0.975021 0.109864
1.600000 -0.989910 0.109852
1.620000 -1.008672 0.109847
1.640000 -1.029965 0.109857
1.660000 -1.051663 0.109886
1.680000 -1.071328 0.109924
1.700000 -1.086813 0.109952
1.720000 -1.096863 0.109947
1.740000 -1.101545 0.109891
1.760000 -1.102413 0.109781
1.780000 -1.102302 0.109635
1.800000 -1.104771 0.109485
1.820000 -1.113272 0.109377
1.840000 -1.130185 0.109347
1.860000 -1.155929 0.109415
1.880000 -1.188331 0.109574
1.900000 -1.222435 0.109789
1.920000 -1.250820 0.110014
1.940000 -1.264436 0.110199
1.960000 -1.253846 0.110308
1.980000 -1.210673 0.110325
2.000000 -1.129003 0.110258
2.020000 -1.006493 0.110130
2.040000 -0.844976 0.109972
2.060000 -0.650420 0.109811
2.080000 -0.432246 0.109669
2.100000 -0.202100 0.109561
2.120000 0.027696 0.109494
2.140000 0.245766 0.109472
2.160000 0.443067 0.109498
2.180000 0.613815 0.109567
2.200000 0.755788 0.109672
2.220000 0.869982 0.109798
2.240000 0.959717 0.109924
2.260000 1.029378 0.110028
2.280000 1.083083 0.110093
2.300000 1.123536 0.110111
2.320000 1.151322 0.110083
2.340000 1.164768 0.110022
2.360000 1.160410 0.109945
2.380000 1.133955 0.109871
2.400000 1.081528 0.109813
2.420000 1.000948 0.109778
2.440000 0.892729 0.109766
2.460000 0.760612 0.109772
2.480000 0.611470 0.109788
2.500000 0.454593 0.109805
2.520000 0.300471 0.109815
2.540000 0.159300 0.109812
2.560000 0.039476 0.109794
2.580000 -0.053608 0.109767
2.600000 -0.118270 0.109737
2.620000 -0.156593 0.109718
2.640000 -0.173838 0.109721
2.660000 -0.177326 0.109753
2.680000 -0.175018 0.109815
2.700000 -0.174055 0.109892
2.720000 -0.179541 0.109966
2.740000 -0.193793 0.110012
2.760000 -0.216168 0.110011
2.780000 -0.243484 0.109953
2.800000 -0.270926 0.109848
2.820000 -0.293221 0.109720
2.840000 -0.305850 0.109602
2.860000 -0.306040 0.109529
2.880000 -0.293354 0.109523
2.900000 -0.269769 0.109588
2.920000 -0.239250 0.109710
2.940000 -0.206939 0.109855
2.960000 -0.178131 0.109991
2.980000 -0.157258 0.110087
3.000000 -0.147108 0.110129
3.020000 -0.148398 0.110119
3.040000 -0.159810 0.110071
3.060000 -0.178425 0.110003
3.080000 -0.200476 0.109929
3.100000 -0.222214 0.109855
3.120000 -0.240729 0.109777
3.140000 -0.254518 0.109691
3.160000 -0.263726 0.109596
3.180000 -0.269982 0.109507
3.200000 -0.275921 0.109443
3.220000 -0.284474 0.109433
3.240000 -0.298119 0.109493
3.260000 -0.318228 0.109623
3.280000 -0.344664 0.109802
3.300000 -0.375700 0.109988
3.320000 -0.408246 0.110133
3.340000 -0.438338 0.110198
3.360000 -0.461748 0.110166
3.380000 -0.474585 0.110047
3.400000 -0.473747 0.109879
3.420000 -0.457140 0.109714
3.440000 -0.423632 0.109601
3.460000 -0.372792 0.109570
3.480000 -0.304486 0.109628
3.500000 -0.218490 0.109753
3.520000 -0.114223 0.109906
3.540000 0.009284 0.110043
3.560000 0.153153 0.110127
3.580000 0.318168 0.110138
3.600000 0.504138 0.110078
3.620000 0.709232 0.109965
3.640000 0.929466 0.109829
3.660000 1.158460 0.109704
3.680000 1.387587 0.109618
3.700000 1.606506 0.109589
3.720000 1.804056 0.109619
3.740000 1.969371 0.109694
3.760000 2.093043 0.109788
3.780000 2.168166 0.109872
3.800000 2.191065 0.109917
3.820000 2.161631 0.109910
3.840000 2.083193 0.109851
3.860000 1.961983 0.109758
3.880000 1.806290 0.109661
3.900000 1.625471 0.109593
3.920000 1.428969 0.109581
3.940000 1.225516 0.109634
3.960000 1.022597 0.109744
3.980000 0.826246 0.109886
4.000000 0.641128 0.110026
4.020000 0.470845 0.110131
4.040000 0.318334 0.110176
4.060000 0.186248 0.110152
4.080000 0.077200 0.110062
4.100000 -0.006174 0.109927
4.120000 -0.061363 0.109772
4.140000 -0.086281 0.109630
4.160000 -0.079663 0.109527
4.180000 -0.041438 0.109482
4.200000 0.027007 0.109502
4.220000 0.122733 0.109581
4.240000 0.241358 0.109699
4.260000 0.377348 0.109828
4.280000 0.524444 0.109940
4.300000 0.676124 0.110012
4.320000 0.826043 0.110033
4.340000 0.968362 0.110004
4.360000 1.097935 0.109943
4.380000 1.210363 0.109872
4.400000 1.301937 0.109816
4.420000 1.369533 0.109791
4.440000 1.410540 0.109801
4.460000 1.422858 0.109837
4.480000 1.405003 0.109884
4.500000 1.356320 0.109922
4.520000 1.277243 0.109937
4.540000 1.169555 0.109924
4.560000 1.036544 0.109887
4.580000 0.883011 0.109835
4.600000 0.715054 0.109782
4.620000 0.539661 0.109735
4.640000 0.364120 0.109698
4.660000 0.195353 0.109669
4.680000 0.039258 0.109648
4.700000 -0.099823 0.109637
4.720000 -0.219423 0.109645
4.740000 -0.319002 0.109680
4.760000 -0.399735 0.109751
4.780000 -0.464072 0.109853
4.800000 -0.515162 0.109970
4.820000 -0.556239 0.110073
4.840000 -0.590099 0.110128
4.860000 -0.618726 0.110107
4.880000 -0.643151 0.110003
4.900000 -0.663521 0.109832
4.920000 -0.679346 0.109633
4.940000 -0.689855 0.109457
4.960000 -0.694356 0.109352
4.980000 -0.692523 0.109342
5.000000 -0.684538 0.109426
5.020000 -0.671074 0.109574
5.040000 -0.653123 0.109740
5.060000 -0.631728 0.109882
5.080000 -0.607696 0.109971
5.100000 -0.581375 0.110004
5.120000 -0.552554 0.109999
5.140000 -0.520537 0.109983
5.160000 -0.484370 0.109981
5.180000 -0.443189 0.110004
5.200000 -0.396610 0.110042
5.220000 -0.345079 0.110074
5.240000 -0.290078 0.110076
5.260000 -0.234159 0.110034
5.280000 -0.180749 0.109950
5.300000 -0.133774 0.109841
5.320000 -0.097146 0.109736
5.340000 -0.074206 0.109659
5.360000 -0.067219 0.109629
5.380000 -0.077008 0.109647
5.400000 -0.102789 0.109699
5.420000 -0.142229 0.109767
5.440000 -0.191708 0.109832
5.460000 -0.246723 0.109881
5.480000 -0.302380 0.109909
5.500000 -0.353859 0.109916
5.520000 -0.396815 0.109906
5.540000 -0.427644 0.109881
5.560000 -0.443617 0.109841
5.580000 -0.442897 0.109785
5.600000 -0.424481 0.109716
5.620000 -0.388119 0.109642
5.640000 -0.334261 0.109576
5.660000 -0.264062 0.109536
5.680000 -0.179447 0.109537
5.700000 -0.083200 0.109585
5.720000 0.020945 0.109677
5.740000 0.128297 0.109795
5.760000 0.233321 0.109917
5.780000 0.329895 0.110018
5.800000 0.411734 0.110079
5.820000 0.472920 0.110094
5.840000 0.508484 0.110068
5.860000 0.514949 0.110013
5.880000 0.490750 0.109945
5.900000 0.436442 0.109874
5.920000 0.354665 0.109805
5.940000 0.249856 0.109736
5.960000 0.127753 0.109667
5.980000 -0.005240 0.109600
6.000000 -0.142715 0.109548
6.020000 -0.278853 0.109527
6.040000 -0.408858 0.109556
6.060000 -0.529171 0.109640
6.080000 -0.637454 0.109772
6.100000 -0.732366 0.109924
6.120000 -0.813200 0.110059
6.140000 -0.879461 0.110140
6.160000 -0.930488 0.110142
6.180000 -0.965182 0.110067
6.200000 -0.981911 0.109936
6.220000 -0.978589 0.109788
6.240000 -0.952919 0.109664
6.260000 -0.902745 0.109594
6.280000 -0.826450 0.109588
6.300000 -0.723321 0.109634
6.320000 -0.593834 0.109711
6.340000 -0.439805 0.109793
6.360000 -0.264408 0.109863
6.380000 -0.072063 0.109914
6.400000 0.131767 0.109949
6.420000 0.340841 0.109969
6.440000 0.548432 0.109975
6.460000 0.747612 0.109960
6.480000 0.931535 0.109914
6.500000 1.093706 0.109836
6.520000 1.228264 0.109734
6.540000 1.330277 0.109630
6.560000 1.396059 0.109555
6.580000 1.423485 0.109537
6.600000 1.412287 0.109590
6.620000 1.364256 0.109706
6.640000 1.283328 0.109853
6.660000 1.175477 0.109986
6.680000 1.048397 0.110061
6.700000 0.910967 0.110052
6.720000 0.772543 0.109956
6.740000 0.642130 0.109796
6.760000 0.527543 0.109612
6.780000 0.434655 0.109452
6.800000 0.366847 0.109355
6.820000 0.324726 0.109344
6.840000 0.306161 0.109421
6.860000 0.306635 0.109572
6.880000 0.319855 0.109770
6.900000 0.338534 0.109980
6.920000 0.355243 0.110167
6.940000 0.363196 0.110302
6.960000 0.356897 0.110360
6.980000 0.332551 0.110332
7.000000 0.288231 0.110224
7.020000 0.223807 0.110058
7.040000 0.140686 0.109873
7.060000 0.041441 0.109710
7.080000 -0.070595 0.109605
7.100000 -0.191694 0.109576
7.120000 -0.318012 0.109617
7.140000 -0.445757 0.109700
7.160000 -0.571259 0.109788
7.180000 -0.690977 0.109845
7.200000 -0.801478 0.109851
7.220000 -0.899454 0.109806
7.240000 -0.981789 0.109731
7.260000 -1.045698 0.109652
7.280000 -1.088933 0.109596
7.300000 -1.110008 0.109577
7.320000 -1.108416 0.109597
7.340000 -1.084765 0.109648
7.360000 -1.040823 0.109719
7.380000 -0.979430 0.109802
7.400000 -0.904280 0.109892
7.420000 -0.819613 0.109985
7.440000 -0.729844 0.110069
7.460000 -0.639186 0.110126
7.480000 -0.551321 0.110137
7.500000 -0.469149 0.110083
7.520000 -0.394652 0.109964
7.540000 -0.328850 0.109797
7.560000 -0.271861 0.109619
7.580000 -0.223015 0.109477
7.600000 -0.181003 0.109408
7.620000 -0.144029 0.109431
7.640000 -0.109956 0.109535
7.660000 -0.076440 0.109686
7.680000 -0.041065 0.109835
7.700000 -0.001496 0.109941
7.720000 0.044344 0.109976
7.740000 0.098052 0.109940
7.760000 0.160495 0.109856
7.780000 0.231562 0.109758
7.800000 0.309957 0.109682
7.820000 0.393069 0.109656
7.840000 0.476981 0.109686
7.860000 0.556640 0.109765
7.880000 0.626198 0.109868
7.900000 0.679506 0.109965
7.920000 0.710712 0.110027
7.940000 0.714891 0.110035
7.960000 0.688632 0.109985
7.980000 0.630494 0.109892
8.000000 0.541270 0.109785
8.020000 0.424023 0.109700
8.040000 0.283880 0.109665
8.060000 0.127632 0.109694
8.080000 -0.036825 0.109773
8.100000 -0.201117 0.109867
8.120000 -0.357011 0.109932
8.140000 -0.496970 0.109930
8.160000 -0.614577 0.109847
8.180000 -0.704813 0.109701
8.200000 -0.764204 0.109536
8.220000 -0.790842 0.109410
8.240000 -0.784332 0.109368
8.260000 -0.745699 0.109429
8.280000 -0.677281 0.109579
8.300000 -0.582620 0.109773
8.320000 -0.466357 0.109957
8.340000 -0.334097 0.110085
8.360000 -0.192228 0.110137
8.380000 -0.047662 0.110118
8.400000 0.092507 0.110054
8.420000 0.221417 0.109978
8.440000 0.332909 0.109915
8.460000 0.421986 0.109879
8.480000 0.485214 0.109867
8.500000 0.520991 0.109869
8.520000 0.529644 0.109870
8.540000 0.513321 0.109860
8.560000 0.475681 0.109831
8.580000 0.421428 0.109780
8.600000 0.355734 0.109707
8.620000 0.283645 0.109619
8.640000 0.209543 0.109529
8.660000 0.136747 0.109458
8.680000 0.067285 0.109431
8.700000 0.001876 0.109467
8.720000 -0.059914 0.109572
8.740000 -0.119363 0.109730
8.760000 -0.178215 0.109906
8.780000 -0.238286 0.110055
8.800000 -0.301114 0.110138
8.820000 -0.367724 0.110134
8.840000 -0.438494 0.110050
8.860000 -0.513149 0.109915
8.880000 -0.590847 0.109771
8.900000 -0.670318 0.109657
8.920000 -0.750028 0.109597
8.940000 -0.828319 0.109595
8.960000 -0.903514 0.109635
8.980000 -0.973978 0.109693
9.000000 -1.038146 0.109747
9.020000 -1.094536 0.109784
9.040000 -1.141770 0.109804
9.060000 -1.178611 0.109813
9.080000 -1.204044 0.109822
9.100000 -1.217363 0.109839
9.120000 -1.218270 0.109869
9.140000 -1.206945 0.109909
9.160000 -1.184061 0.109949
9.180000 -1.150732 0.109978
9.200000 -1.108377 0.109984
9.220000 -1.058534 0.109961
9.240000 -1.002626 0.109908
9.260000 -0.941756 0.109834
9.280000 -0.876544 0.109755
9.300000 -0.807077 0.109687
9.320000 -0.732975 0.109644
9.340000 -0.653580 0.109625
9.360000 -0.568252 0.109621
9.380000 -0.476713 0.109613
9.400000 -0.379386 0.109590
9.420000 -0.277659 0.109552
9.440000 -0.174023 0.109514
9.460000 -0.072031 0.109506
9.480000 0.023915 0.109553
9.500000 0.108951 0.109665
9.520000 0.178250 0.109828
9.540000 0.227577 0.110003
9.560000 0.253826 0.110143
9.580000 0.255465 0.110210
9.600000 0.232831 0.110189
9.620000 0.188250 0.110098
9.640000 0.125954 0.109972
9.660000 0.051828 0.109853
9.680000 -0.026992 0.109769
9.700000 -0.102609 0.109722
9.720000 -0.166916 0.109693
9.740000 -0.212130 0.109657
9.760000 -0.231307 0.109595
9.780000 -0.218777 0.109514
9.800000 -0.170510 0.109439
9.820000 -0.084377 0.109407
9.840000 0.039677 0.109449
9.860000 0.199576 0.109571
9.880000 0.391169 0.109748
9.900000 0.608414 0.109936
9.920000 0.843683 0.110080
9.940000 1.088200 0.110142
9.960000 1.332577 0.110105
9.980000 1.567426 0.109988
10.000000 1.783989 0.109829
10.020000 1.974735 0.109681
10.040000 2.133844 0.109588
10.060000 2.257537 0.109575
10.080000 2.344196 0.109641
10.100000 2.394258 0.109757
10.120000 2.409902 0.109882
10.140000 2.394568 0.109975
10.160000 2.352371 0.110010
10.180000 2.287509 0.109983
10.200000 2.203732 0.109913
10.220000 2.103962 0.109835
10.240000 1.990102 0.109783
10.260000 1.863063 0.109775
10.280000 1.722979 0.109810
10.300000 1.569563 0.109867
10.320000 1.402548 0.109914
10.340000 1.222105 0.109926
10.360000 1.029187 0.109893
10.380000 0.825735 0.109823
10.400000 0.614704 0.109734
10.420000 0.399928 0.109646
10.440000 0.185844 0.109571
10.460000 -0.022869 0.109507
10.480000 -0.221683 0.109447
10.500000 -0.406569 0.109391
10.520000 -0.574266 0.109346
10.540000 -0.722435 0.109337
10.560000 -0.849693 0.109391
10.580000 -0.955547 0.109526
10.600000 -1.040251 0.109735
10.620000 -1.104639 0.109985
10.640000 -1.149959 0.110223
10.660000 -1.177740 0.110392
10.680000 -1.189709 0.110448
10.700000 -1.187751 0.110376
10.720000 -1.173907 0.110191
10.740000 -1.150381 0.109937
10.760000 -1.119527 0.109670
10.780000 -1.083821 0.109445
10.800000 -1.045784 0.109304
10.820000 -1.007875 0.109268
10.840000 -0.972362 0.109334
10.860000 -0.941185 0.109478
10.880000 -0.915844 0.109661
10.900000 -0.897307 0.109840
10.920000 -0.885973 0.109977
10.940000 -0.881657 0.110047
10.960000 -0.883625 0.110044
10.980000 -0.890635 0.109981
11.000000 -0.900988 0.109885
11.020000 -0.912580 0.109787
11.040000 -0.922946 0.109712
11.060000 -0.929316 0.109671
11.080000 -0.928687 0.109663
11.100000 -0.917932 0.109678
11.120000 -0.893957 0.109705
11.140000 -0.853914 0.109734
11.160000 -0.795457 0.109762
11.180000 -0.717016 0.109786
11.200000 -0.618057 0.109809
11.220000 -0.499292 0.109828
11.240000 -0.362784 0.109843
11.260000 -0.211925 0.109853
11.280000 -0.051276 0.109859
11.300000 0.113730 0.109866
11.320000 0.277188 0.109875
11.340000 0.433182 0.109882
11.360000 0.576238 0.109877
11.380000 0.701711 0.109846
11.400000 0.806069 0.109779
11.420000 0.887020 0.109674
11.440000 0.943494 0.109543
11.460000 0.975494 0.109410
11.480000 0.983850 0.109308
11.500000 0.969934 0.109266
11.520000 0.935401 0.109301
11.540000 0.881985 0.109412
11.560000 0.811403 0.109584
11.580000 0.725361 0.109787
11.600000 0.625647 0.109988
11.620000 0.514286 0.110154
11.640000 0.393701 0.110262
11.660000 0.266831 0.110299
11.680000 0.137176 0.110262
11.700000 0.008734 0.110160
11.720000 -0.114164 0.110011
11.740000 -0.227096 0.109839
11.760000 -0.325854 0.109669
11.780000 -0.406736 0.109529
11.800000 -0.466803 0.109439
11.820000 -0.504057 0.109414
11.840000 -0.517525 0.109457
11.860000 -0.507238 0.109554
11.880000 -0.474134 0.109684
11.900000 -0.419912 0.109817
11.920000 -0.346864 0.109922
11.940000 -0.257730 0.109977
11.960000 -0.155590 0.109975
11.980000 -0.043795 0.109924
12.000000 0.074048 0.109847
12.020000 0.194096 0.109769
12.040000 0.312276 0.109712
12.060000 0.424352 0.109686
12.080000 0.526028 0.109687
12.100000 0.613134 0.109706
12.120000 0.681853 0.109728
12.140000 0.728986 0.109749
12.160000 0.752211 0.109766
12.180000 0.750302 0.109786
12.200000 0.723271 0.109808
12.220000 0.672415 0.109829
12.240000 0.600248 0.109837
12.260000 0.510339 0.109816
12.280000 0.407063 0.109758
12.300000 0.295309 0.109667
12.320000 0.180172 0.109558
12.340000 0.066660 0.109458
12.360000 -0.040555 0.109396
12.380000 -0.137339 0.109391
12.400000 -0.220237 0.109449
12.420000 -0.286577 0.109561
12.440000 -0.334534 0.109708
12.460000 -0.363182 0.109865
12.480000 -0.372515 0.110010
12.500000 -0.363469 0.110122
12.520000 -0.337907 0.110187
12.540000 -0.298570 0.110192
12.560000 -0.248974 0.110133
12.580000 -0.193243 0.110010
12.600000 -0.135882 0.109834
12.620000 -0.081487 0.109629
12.640000 -0.034432 0.109433
12.660000 0.001448 0.109288
12.680000 0.023137 0.109232
12.700000 0.028649 0.109289
12.720000 0.017145 0.109453
12.740000 -0.011062 0.109692
12.760000 -0.054600 0.109949
12.780000 -0.111215 0.110160
12.800000 -0.178001 0.110272
12.820000 -0.251652 0.110255
12.840000 -0.328687 0.110116
12.860000 -0.405640 0.109896
12.880000 -0.479187 0.109654
12.900000 -0.546219 0.109451
12.920000 -0.603876 0.109333
12.940000 -0.649560 0.109318
12.960000 -0.680961 0.109396
12.980000 -0.696105 0.109538
13.000000 -0.693454 0.109707
13.020000 -0.672030 0.109870
13.040000 -0.631577 0.110003
13.060000 -0.572698 0.110091
13.080000 -0.496969 0.110126
13.100000 -0.406966 0.110102
13.120000 -0.306208 0.110018
13.140000 -0.198979 0.109882
13.160000 -0.090062 0.109708
13.180000 0.015612 0.109526
13.200000 0.113361 0.109368
13.220000 0.199140 0.109270
13.240000 0.269891 0.109253
13.260000 0.323821 0.109322
13.280000 0.360555 0.109464
13.300000 0.381194 0.109647
13.320000 0.388243 0.109837
13.340000 0.385437 0.109999
13.360000 0.377493 0.110110
13.380000 0.369796 0.110160
13.400000 0.368047 0.110150
13.420000 0.377892 0.110092
13.440000 0.404555 0.110000
13.460000 0.452466 0.109892
13.480000 0.524921 0.109781
13.500000 0.623779 0.109681
13.520000 0.749210 0.109600
13.540000 0.899533 0.109544
13.560000 1.071152 0.109514
13.580000 1.258622 0.109508
13.600000 1.454869 0.109517
13.620000 1.651535 0.109535
13.640000 1.839473 0.109555
13.660000 2.009316 0.109574
13.680000 2.152108 0.109594
13.700000 2.259912 0.109621
13.720000 2.326344 0.109662
13.740000 2.346969 0.109720
13.760000 2.319538 0.109795
13.780000 2.244015 0.109879
13.800000 2.122439 0.109963
13.820000 1.958625 0.110034
13.840000 1.757759 0.110083
13.860000 1.525956 0.110099
13.880000 1.269829 0.110074
13.900000 0.996122 0.110001
13.920000 0.711439 0.109878
13.940000 0.422083 0.109710
13.960000 0.133974 0.109518
13.980000 -0.147350 0.109333
14.000000 -0.416719 0.109197
14.020000 -0.669329 0.109151
14.040000 -0.900774 0.109220
14.060000 -1.107146 0.109401
14.080000 -1.285186 0.109660
14.100000 -1.432467 0.109937
14.120000 -1.547577 0.110164
14.140000 -1.630270 0.110288
14.160000 -1.681530 0.110280
14.180000 -1.703540 0.110152
14.200000 -1.699540 0.109943
14.220000 -1.673574 0.109714
14.240000 -1.630166 0.109519
14.260000 -1.573950 0.109396
