0.010000000	29.708893
0.020000000	38.341396
0.030000000	39.626119
0.040000000	36.931219
0.050000000	34.906531
0.060000000	35.255568
0.070000000	33.865260
0.080000000	35.326457
0.090000000	37.634276
0.10000000	37.227441
0.11000000	34.386811
0.12000000	36.186984
0.13000000	38.729601
0.14000000	46.835471
0.15000000	63.578401
0.16000000	81.916469
0.17000000	91.934939
0.18000000	97.515660
0.19000000	103.71063
0.20000000	114.36871
0.21000000	128.40959
0.22000000	143.52698
0.23000000	156.14932
0.24000000	167.43071
0.25000000	177.88776
0.26000000	189.06171
0.27000000	197.15856
0.28000000	204.41292
0.29000000	212.99444
0.30000000	217.78395
0.31000000	222.62729
0.32000000	228.74959
0.33000000	233.25229
0.34000000	235.74593
0.35000000	236.78731
0.36000000	239.56501
0.37000000	241.16739
0.38000000	241.51914
0.39000000	240.91937
0.40000000	240.76487
0.41000000	240.69972
0.42000000	240.54584
0.43000000	241.20036
0.44000000	241.55493
0.45000000	240.62174
0.46000000	239.57689
0.47000000	239.39349
0.48000000	239.85296
0.49000000	240.97532
0.50000000	242.61115
0.51000000	243.83558
0.52000000	244.84074
0.53000000	246.66771
0.54000000	249.09438
0.55000000	252.23229
0.56000000	254.25594
0.57000000	255.98085
0.58000000	258.85674
0.59000000	262.17034
0.60000000	265.74003
0.61000000	267.92042
0.62000000	270.09487
0.63000000	271.62230
0.64000000	273.76940
0.65000000	274.78222
0.66000000	275.08894
0.67000000	277.32845
0.68000000	277.92905
0.69000000	277.84390
0.70000000	279.72885
0.71000000	280.41825
0.72000000	280.16779
0.73000000	280.51118
0.74000000	280.46103
0.75000000	280.72478
0.76000000	281.57006
0.77000000	282.03788
0.78000000	282.37088
0.79000000	282.49883
0.80000000	282.60694
0.81000000	282.47879
0.82000000	282.49404
0.83000000	282.46191
0.84000000	282.60648
0.85000000	282.97238
0.86000000	283.59811
0.87000000	284.76608
0.88000000	284.78614
0.89000000	285.31410
0.90000000	285.42258
0.91000000	285.93451
0.92000000	286.23677
0.93000000	286.21204
0.94000000	287.44343
0.95000000	287.28069
0.96000000	286.99794
0.97000000	287.02272
0.98000000	287.91134
0.99000000	288.18126
1.0000000	288.40490
1.0100000	289.24545
1.0200000	289.70209
1.0300000	289.80040
1.0400000	289.44924
1.0500000	290.84110
1.0600000	292.19244
1.0700000	292.36773
1.0800000	292.22586
1.0900000	292.81412
1.1000000	293.65285
1.1100000	294.30973
1.1200000	295.23164
1.1300000	294.84187
1.1400000	295.19074
1.1500000	295.07196
1.1600000	294.92179
1.1700000	295.74225
1.1800000	297.03483
1.1900000	297.44211
1.2000000	297.93424
1.2100000	298.96774
1.2200000	299.47220
1.2300000	299.53058
1.2400000	299.28183
1.2500000	299.52215
1.2600000	300.53741
1.2700000	301.43414
1.2800000	301.86328
1.2900000	302.06765
1.3000000	303.32438
1.3100000	304.46991
1.3200000	305.31237
1.3300000	305.63018
1.3400000	305.66758
1.3500000	306.76966
1.3600000	307.71968
1.3700000	309.43414
1.3800000	310.35510
1.3900000	311.31939
1.4000000	312.14658
1.4100000	312.15278
1.4200000	312.56925
1.4300000	313.54235
1.4400000	314.61667
1.4500000	316.44225
1.4600000	317.46505
1.4700000	317.90956
1.4800000	319.62738
1.4900000	321.44333
1.5000000	322.61000
1.5100000	323.15609
1.5200000	324.56738
1.5300000	325.81676
1.5400000	327.58845
1.5500000	329.51730
1.5600000	331.92680
1.5700000	334.13256
1.5800000	335.17799
1.5900000	337.03050
1.6000000	339.58904
1.6100000	341.17525
1.6200000	342.68029
1.6300000	344.35156
1.6400000	346.66406
1.6500000	349.43968
1.6600000	351.63670
1.6700000	353.96236
1.6800000	356.85082
1.6900000	360.13022
1.7000000	362.24648
1.7100000	364.40487
1.7200000	367.24205
1.7300000	370.68194
1.7400000	373.73445
1.7500000	376.13462
1.7600000	379.51095
1.7700000	383.20487
1.7800000	386.62664
1.7900000	391.12063
1.8000000	395.58302
1.8100000	398.30953
1.8200000	401.84105
1.8300000	406.02743
1.8400000	410.41700
1.8500000	414.62236
1.8600000	419.07142
1.8700000	423.35043
1.8800000	427.49383
1.8900000	431.75191
1.9000000	436.32248
1.9100000	441.28132
1.9200000	445.89880
1.9300000	451.52331
1.9400000	456.41701
1.9500000	461.17071
1.9600000	466.21796
1.9700000	470.85922
1.9800000	475.61941
1.9900000	481.54537
2.0000000	487.28714
2.0100000	492.10579
2.0200000	496.73347
2.0300000	501.22082
2.0400000	506.05348
2.0500000	511.22821
2.0600000	515.94453
2.0700000	521.24332
2.0800000	526.29615
2.0900000	530.32078
2.1000000	534.16543
2.1100000	538.28889
2.1200000	542.41991
2.1300000	546.51930
2.1400000	550.22373
2.1500000	553.97237
2.1600000	558.04136
2.1700000	561.06281
2.1800000	563.01930
2.1900000	564.22225
2.2000000	565.96164
2.2100000	567.76692
2.2200000	569.10393
2.2300000	569.74763
2.2400000	570.78056
2.2500000	572.22461
2.2600000	571.82913
2.2700000	571.14270
2.2800000	570.60857
2.2900000	570.04942
2.3000000	569.21854
2.3100000	568.89659
2.3200000	567.47906
2.3300000	565.81863
2.3400000	564.22696
2.3500000	561.94374
2.3600000	559.56002
2.3700000	556.54146
2.3800000	553.38928
2.3900000	550.16130
2.4000000	547.01134
2.4100000	543.59848
2.4200000	539.64621
2.4300000	536.32593
2.4400000	532.33428
2.4500000	528.29435
2.4600000	524.86371
2.4700000	520.82125
2.4800000	516.75871
2.4900000	512.68244
2.5000000	508.62362
2.5100000	503.89061
2.5200000	498.74514
2.5300000	494.55931
2.5400000	490.34375
2.5500000	486.73136
2.5600000	483.01267
2.5700000	479.01399
2.5800000	475.21845
2.5900000	471.50691
2.6000000	467.90865
2.6100000	464.58851
2.6200000	461.71817
2.6300000	458.25944
2.6400000	454.64133
2.6500000	452.31689
2.6600000	450.11800
2.6700000	446.75686
2.6800000	443.31616
2.6900000	440.21603
2.7000000	437.48263
2.7100000	435.37180
2.7200000	432.92915
2.7300000	430.57071
2.7400000	428.56458
2.7500000	427.26765
2.7600000	426.65095
2.7700000	426.14468
2.7800000	426.15556
2.7900000	426.68516
2.8000000	426.83320
2.8100000	427.91197
2.8200000	429.56152
2.8300000	431.54621
2.8400000	434.10817
2.8500000	438.10309
2.8600000	443.77208
2.8700000	451.77499
2.8800000	467.19111
2.8900000	498.18355
2.9000000	568.75007
2.9100000	752.74461
2.9200000	1251.4989
2.9300000	2581.5947
2.9400000	5512.6179
2.9500000	9113.1916
2.9600000	9195.2926
2.9700000	5644.6078
2.9800000	2698.5002
2.9900000	1312.9161
3.0000000	768.43527
3.0100000	558.84827
3.0200000	474.22214
3.0300000	435.06939
3.0400000	413.08868
3.0500000	398.96870
3.0600000	388.81536
3.0700000	380.38754
3.0800000	372.61104
3.0900000	365.32044
3.1000000	358.17312
3.1100000	350.86067
3.1200000	344.41344
3.1300000	338.68913
3.1400000	333.38219
3.1500000	328.42432
3.1600000	324.01987
3.1700000	320.08470
3.1800000	316.11837
3.1900000	311.95182
3.2000000	307.66625
3.2100000	304.23667
3.2200000	301.14756
3.2300000	298.33355
3.2400000	295.43214
3.2500000	292.39518
3.2600000	289.44591
3.2700000	287.30968
3.2800000	284.63397
3.2900000	281.98984
3.3000000	280.20929
3.3100000	278.32571
3.3200000	276.98631
3.3300000	275.29215
3.3400000	273.43239
3.3500000	271.46335
3.3600000	269.05007
3.3700000	266.66881
3.3800000	264.66559
3.3900000	262.91802
3.4000000	261.17484
3.4100000	259.40950
3.4200000	258.39638
3.4300000	256.88191
3.4400000	255.26952
3.4500000	253.98814
3.4600000	252.80871
3.4700000	251.82271
3.4800000	250.65401
3.4900000	248.90876
3.5000000	248.06465
3.5100000	246.84247
3.5200000	245.32059
3.5300000	243.62901
3.5400000	242.12920
3.5500000	240.89559
3.5600000	240.11935
3.5700000	238.68402
3.5800000	237.46629
3.5900000	236.39256
3.6000000	235.44923
3.6100000	234.57664
3.6200000	233.75675
3.6300000	233.24313
3.6400000	232.63510
3.6500000	232.09674
3.6600000	232.12359
3.6700000	232.31183
3.6800000	231.54688
3.6900000	229.51436
3.7000000	227.56318
3.7100000	226.30871
3.7200000	224.94096
3.7300000	223.53465
3.7400000	222.41118
3.7500000	221.43371
3.7600000	221.24716
3.7700000	220.97028
3.7800000	219.94771
3.7900000	218.49685
3.8000000	217.35159
3.8100000	216.95065
3.8200000	216.41155
3.8300000	214.83427
3.8400000	213.84642
3.8500000	213.19211
3.8600000	212.34496
3.8700000	211.29677
3.8800000	210.55662
3.8900000	209.83603
3.9000000	208.90240
3.9100000	208.28484
3.9200000	207.55693
3.9300000	206.59955
3.9400000	205.77841
3.9500000	205.00624
3.9600000	204.63671
3.9700000	203.84232
3.9800000	203.05632
3.9900000	202.16625
4.0000000	201.86741
4.0100000	202.06966
4.0200000	201.72199
4.0300000	201.53026
4.0400000	201.28102
4.0500000	200.84313
4.0600000	200.37192
4.0700000	200.16932
4.0800000	200.41427
4.0900000	200.30788
4.1000000	199.86797
4.1100000	199.26690
4.1200000	199.05926
4.1300000	198.90504
4.1400000	198.90591
4.1500000	198.94141
4.1600000	199.06848
4.1700000	199.23993
4.1800000	199.05757
4.1900000	199.11346
4.2000000	199.28098
4.2100000	199.08624
4.2200000	199.45140
4.2300000	199.96566
4.2400000	200.38479
4.2500000	200.30619
4.2600000	200.52836
4.2700000	201.13850
4.2800000	201.10791
4.2900000	201.42944
4.3000000	201.73297
4.3100000	202.46447
4.3200000	203.17465
4.3300000	203.62357
4.3400000	204.01192
4.3500000	203.85601
4.3600000	204.46349
4.3700000	204.65234
4.3800000	204.33564
4.3900000	204.33441
4.4000000	205.01247
4.4100000	205.47493
4.4200000	206.30259
4.4300000	206.59560
4.4400000	206.64947
4.4500000	206.80502
4.4600000	207.25837
4.4700000	207.70618
4.4800000	208.31130
4.4900000	208.81432
4.5000000	209.41004
4.5100000	210.23190
4.5200000	211.10800
4.5300000	211.99288
4.5400000	213.09463
4.5500000	214.18048
4.5600000	215.33083
4.5700000	216.96111
4.5800000	218.67343
4.5900000	221.06557
4.6000000	223.17514
4.6100000	225.31729
4.6200000	226.85502
4.6300000	227.52669
4.6400000	228.43187
4.6500000	229.62440
4.6600000	231.85927
4.6700000	234.48757
4.6800000	237.06363
4.6900000	239.94941
4.7000000	243.57322
4.7100000	247.46592
4.7200000	252.23767
4.7300000	258.06672
4.7400000	265.98894
4.7500000	278.54522
4.7600000	302.77995
4.7700000	355.53399
4.7800000	488.06545
4.7900000	843.10513
4.8000000	1764.0699
4.8100000	3737.7723
4.8200000	6099.2511
4.8300000	6244.7852
4.8400000	4017.4890
4.8500000	1979.8262
4.8600000	957.92624
4.8700000	541.47550
4.8800000	379.78511
4.8900000	315.14100
4.9000000	286.38091
4.9100000	271.51584
4.9200000	262.61190
4.9300000	256.46737
4.9400000	250.98174
4.9500000	246.35062
4.9600000	242.54033
4.9700000	239.09550
4.9800000	235.62719
4.9900000	232.55213
5.0000000	229.70532
5.0100000	227.25006
5.0200000	225.03224
5.0300000	223.14827
5.0400000	221.02146
5.0500000	218.70370
5.0600000	216.53963
5.0700000	214.75033
5.0800000	213.10251
5.0900000	211.67211
5.1000000	210.48229
5.1100000	209.73406
5.1200000	208.65192
5.1300000	206.90844
5.1400000	206.06237
5.1500000	205.11060
5.1600000	204.14994
5.1700000	203.47232
5.1800000	202.78964
5.1900000	201.87613
5.2000000	201.18501
5.2100000	200.47324
5.2200000	199.77248
5.2300000	199.65131
5.2400000	199.32213
5.2500000	199.06478
5.2600000	198.97603
5.2700000	198.67965
5.2800000	198.57103
5.2900000	198.62141
5.3000000	198.84075
5.3100000	199.14579
5.3200000	199.78331
5.3300000	200.02487
5.3400000	199.42227
5.3500000	198.94157
5.3600000	198.42812
5.3700000	198.49376
5.3800000	198.39391
5.3900000	198.60856
5.4000000	198.96898
5.4100000	199.38485
5.4200000	199.98813
5.4300000	200.64614
5.4400000	201.21665
5.4500000	201.79342
5.4600000	202.38602
5.4700000	203.15744
5.4800000	204.41087
5.4900000	205.89421
5.5000000	207.43977
5.5100000	208.64984
5.5200000	209.93809
5.5300000	212.20857
5.5400000	214.57883
5.5500000	217.70275
5.5600000	221.05795
5.5700000	225.32192
5.5800000	232.22589
5.5900000	244.60509
5.6000000	270.21290
5.6100000	332.67403
5.6200000	496.08927
5.6300000	920.93051
5.6400000	1895.1837
5.6500000	3346.2237
5.6600000	3977.1891
5.6700000	2987.3271
5.6800000	1619.6841
5.6900000	812.21019
5.7000000	461.81528
5.7100000	322.65295
5.7200000	267.47532
5.7300000	244.25290
5.7400000	232.96907
5.7500000	226.64330
5.7600000	222.43052
5.7700000	219.05281
5.7800000	216.07405
5.7900000	213.96222
5.8000000	211.75360
5.8100000	209.78858
5.8200000	208.30440
5.8300000	206.65421
5.8400000	205.12188
5.8500000	204.03356
5.8600000	202.92747
5.8700000	201.60941
5.8800000	200.42644
5.8900000	199.85876
5.9000000	199.40956
5.9100000	199.08035
5.9200000	198.14100
5.9300000	196.94172
5.9400000	196.29169
5.9500000	195.65837
5.9600000	194.96926
5.9700000	194.36816
5.9800000	193.99227
5.9900000	193.65230
6.0000000	193.42037
6.0100000	193.14503
6.0200000	192.60961
6.0300000	192.21156
6.0400000	192.25740
6.0500000	192.12351
6.0600000	192.01722
6.0700000	192.07884
6.0800000	192.10906
6.0900000	192.18242
6.1000000	191.88347
6.1100000	192.00186
6.1200000	191.65578
6.1300000	191.38886
6.1400000	191.60313
6.1500000	192.07685
6.1600000	192.51719
6.1700000	192.70048
6.1800000	192.62519
6.1900000	192.58945
6.2000000	192.67422
6.2100000	192.47323
6.2200000	192.46791
6.2300000	192.09751
6.2400000	192.02765
6.2500000	191.76270
6.2600000	191.59121
6.2700000	191.70085
6.2800000	192.06920
6.2900000	192.03881
6.3000000	192.07938
6.3100000	192.07078
6.3200000	192.00628
6.3300000	191.96788
6.3400000	192.07540
6.3500000	191.91319
6.3600000	192.10902
6.3700000	192.44937
6.3800000	192.61651
6.3900000	192.58811
6.4000000	192.52275
6.4100000	192.40338
6.4200000	192.55909
6.4300000	192.98898
6.4400000	193.10245
6.4500000	192.81354
6.4600000	193.03689
6.4700000	193.52886
6.4800000	193.76110
6.4900000	193.85610
6.5000000	194.20521
6.5100000	194.64674
6.5200000	194.66693
6.5300000	194.93075
6.5400000	195.26349
6.5500000	195.49313
6.5600000	195.96869
6.5700000	196.03157
6.5800000	196.17647
6.5900000	196.43773
6.6000000	196.41282
6.6100000	196.63042
6.6200000	196.82577
6.6300000	197.26182
6.6400000	197.40293
6.6500000	197.56541
6.6600000	198.05105
6.6700000	198.70716
6.6800000	199.42281
6.6900000	199.77817
6.7000000	200.16081
6.7100000	200.65933
6.7200000	201.49296
6.7300000	202.11930
6.7400000	203.51270
6.7500000	206.10325
6.7600000	210.41803
6.7700000	220.30193
6.7800000	245.58186
6.7900000	311.76532
6.8000000	475.50858
6.8100000	803.25138
6.8200000	1167.1040
6.8300000	1195.1844
6.8400000	860.08545
6.8500000	520.12990
6.8600000	336.40558
6.8700000	257.91748
6.8800000	226.17439
6.8900000	213.54883
6.9000000	208.23906
6.9100000	205.61055
6.9200000	203.89368
6.9300000	202.85589
6.9400000	201.81505
6.9500000	200.49849
6.9600000	199.81941
6.9700000	199.16530
6.9800000	198.71755
6.9900000	198.69110
7.0000000	198.24818
7.0100000	197.80107
7.0200000	197.48734
7.0300000	196.93283
7.0400000	196.59351
7.0500000	196.88704
7.0600000	196.79389
7.0700000	196.61296
7.0800000	196.76038
7.0900000	196.91227
7.1000000	196.93467
7.1100000	197.02403
7.1200000	196.90364
7.1300000	196.69345
7.1400000	196.58260
7.1500000	196.66186
7.1600000	196.87063
7.1700000	197.22888
7.1800000	197.54763
7.1900000	197.95632
7.2000000	197.97223
7.2100000	198.12192
7.2200000	198.57137
7.2300000	198.97585
7.2400000	199.81391
7.2500000	200.49890
7.2600000	201.08205
7.2700000	201.53871
7.2800000	202.21949
7.2900000	202.95411
7.3000000	203.38605
7.3100000	204.25915
7.3200000	205.49387
7.3300000	206.94675
7.3400000	208.73905
7.3500000	210.98742
7.3600000	214.30098
7.3700000	220.10446
7.3800000	232.42571
7.3900000	262.24699
7.4000000	339.76360
7.4100000	537.13499
7.4200000	965.23372
7.4300000	1554.6209
7.4400000	1803.5374
7.4500000	1428.0601
7.4600000	856.58811
7.4700000	492.48271
7.4800000	328.61433
7.4900000	261.25075
7.5000000	234.17365
7.5100000	222.73583
7.5200000	217.48429
7.5300000	214.18380
7.5400000	212.06385
7.5500000	210.57528
7.5600000	209.27919
7.5700000	208.05414
7.5800000	207.20567
7.5900000	206.33229
7.6000000	205.45226
7.6100000	204.87073
7.6200000	204.01209
7.6300000	203.18255
7.6400000	202.40438
7.6500000	201.38826
7.6600000	200.60178
7.6700000	200.35951
7.6800000	199.79150
7.6900000	199.39840
7.7000000	198.72048
7.7100000	197.92851
7.7200000	197.45301
7.7300000	196.88709
7.7400000	196.23730
7.7500000	195.51440
7.7600000	194.79530
7.7700000	194.17600
7.7800000	193.68861
7.7900000	193.26940
7.8000000	192.82111
7.8100000	192.35694
7.8200000	191.95808
7.8300000	191.28778
7.8400000	190.62391
7.8500000	190.04972
7.8600000	189.57032
7.8700000	189.16989
7.8800000	188.49421
7.8900000	188.04926
7.9000000	187.78001
7.9100000	187.38033
7.9200000	186.75003
7.9300000	186.04690
7.9400000	185.36415
7.9500000	185.12030
7.9600000	184.78028
7.9700000	184.39064
7.9800000	183.71732
7.9900000	183.32587
8.0000000	182.81252
8.0100000	182.24850
8.0200000	181.94916
8.0300000	181.66051
8.0400000	181.11940
8.0500000	180.69625
8.0600000	180.36457
8.0700000	179.85232
8.0800000	179.27905
8.0900000	179.07147
8.1000000	179.02189
8.1100000	178.80917
8.1200000	178.34960
8.1300000	178.51906
8.1400000	178.65781
8.1500000	178.47940
8.1600000	178.15778
8.1700000	178.09438
8.1800000	178.49455
8.1900000	178.64741
8.2000000	178.94914
8.2100000	179.53637
8.2200000	179.72584
8.2300000	180.39108
8.2400000	181.25349
8.2500000	182.52029
8.2600000	183.95617
8.2700000	185.89884
8.2800000	188.98792
8.2900000	195.40908
8.3000000	208.38502
8.3100000	238.51019
8.3200000	316.45951
8.3300000	515.60529
8.3400000	968.51569
8.3500000	1688.8114
8.3600000	2193.5399
8.3700000	1956.2327
8.3800000	1253.0605
8.3900000	680.81271
8.4000000	393.50169
8.4100000	271.20021
8.4200000	220.90175
8.4300000	199.59224
8.4400000	189.93600
8.4500000	184.61586
8.4600000	181.07408
8.4700000	178.87103
8.4800000	177.00591
8.4900000	175.24961
8.5000000	173.42784
8.5100000	172.07101
8.5200000	170.90389
8.5300000	169.60122
8.5400000	168.43941
8.5500000	167.41467
8.5600000	166.52855
8.5700000	165.51265
8.5800000	164.60206
8.5900000	163.94636
8.6000000	163.21959
8.6100000	162.50592
8.6200000	162.13624
8.6300000	161.85054
8.6400000	161.41873
8.6500000	160.86417
8.6600000	160.34543
8.6700000	160.15063
8.6800000	160.02578
8.6900000	159.96864
8.7000000	160.03732
8.7100000	160.14080
8.7200000	159.84428
8.7300000	160.02092
8.7400000	160.22967
8.7500000	160.86102
8.7600000	161.54854
8.7700000	161.95222
8.7800000	162.97146
8.7900000	164.99786
8.8000000	168.73293
8.8100000	176.72422
8.8200000	196.22902
8.8300000	246.84338
8.8400000	373.48928
8.8500000	643.20856
8.8600000	1019.4841
8.8700000	1217.9231
8.8800000	1036.2470
8.8900000	667.54537
8.9000000	392.87393
8.9100000	259.01452
8.9200000	201.78165
8.9300000	178.17111
8.9400000	168.14338
8.9500000	163.24896
8.9600000	160.68686
8.9700000	159.14758
8.9800000	157.81011
8.9900000	156.87300
9.0000000	156.08070
9.0100000	154.85286
9.0200000	153.98295
9.0300000	153.90518
9.0400000	153.52598
9.0500000	152.46142
9.0600000	151.73451
9.0700000	150.91629
9.0800000	150.47824
9.0900000	150.39180
9.1000000	150.06900
9.1100000	149.76420
9.1200000	149.56538
9.1300000	149.16082
9.1400000	149.04220
9.1500000	148.55476
9.1600000	147.83881
9.1700000	147.49150
9.1800000	147.47548
9.1900000	147.19255
9.2000000	147.20059
9.2100000	147.33071
9.2200000	146.88557
9.2300000	146.76342
9.2400000	146.78892
9.2500000	146.63531
9.2600000	146.61958
9.2700000	146.44633
9.2800000	146.45447
9.2900000	146.30647
9.3000000	146.14471
9.3100000	145.94881
9.3200000	145.83089
9.3300000	146.00240
9.3400000	145.82414
9.3500000	145.84357
9.3600000	145.83563
9.3700000	145.96055
9.3800000	145.92063
9.3900000	146.41524
9.4000000	146.49670
9.4100000	146.43704
9.4200000	146.53983
9.4300000	146.46047
9.4400000	146.65729
9.4500000	146.63708
9.4600000	146.60170
9.4700000	146.55370
9.4800000	146.77445
9.4900000	147.10441
9.5000000	147.60133
9.5100000	147.80145
9.5200000	148.14050
9.5300000	148.32764
9.5400000	148.72564
9.5500000	149.14016
9.5600000	149.96722
9.5700000	151.01162
9.5800000	152.07696
9.5900000	154.42030
9.6000000	160.13446
9.6100000	173.23771
9.6200000	206.21285
9.6300000	286.79172
9.6400000	445.53149
9.6500000	635.01949
9.6600000	703.60973
9.6700000	586.09829
9.6800000	396.65013
9.6900000	263.46963
9.7000000	199.44986
9.7100000	171.98157
9.7200000	160.42431
9.7300000	155.68382
9.7400000	153.12680
9.7500000	151.79286
9.7600000	151.02501
9.7700000	150.35789
9.7800000	150.15097
9.7900000	149.69501
9.8000000	149.32683
9.8100000	149.02992
9.8200000	148.69802
9.8300000	148.33056
9.8400000	148.07335
9.8500000	148.03048
9.8600000	147.80289
9.8700000	147.86330
9.8800000	147.74429
9.8900000	147.80575
9.9000000	147.68004
9.9100000	147.50581
9.9200000	147.54238
9.9300000	147.76851
9.9400000	148.05556
9.9500000	148.32938
9.9600000	148.53701
9.9700000	148.72211
9.9800000	149.08486
9.9900000	149.61504
10.000000	150.29785
10.010000	151.31312
10.020000	153.16378
10.030000	156.40139
10.040000	162.94287
10.050000	178.81901
10.060000	218.61662
10.070000	316.60899
10.080000	526.91534
10.090000	835.91899
10.100000	1044.0299
10.110000	961.33167
10.120000	670.55939
10.130000	406.09037
10.140000	262.26835
10.150000	197.75562
10.160000	170.02978
10.170000	158.49730
10.180000	153.18131
10.190000	150.40392
10.200000	148.65929
10.210000	147.13450
10.220000	145.87018
10.230000	145.06543
10.240000	144.53512
10.250000	143.61984
10.260000	143.03794
10.270000	142.36898
10.280000	141.65061
10.290000	140.95466
10.300000	140.38975
10.310000	139.82921
10.320000	139.45726
10.330000	139.07892
10.340000	138.81113
10.350000	138.34271
10.360000	137.99666
10.370000	137.63257
10.380000	137.34802
10.390000	137.02505
10.400000	136.46321
10.410000	135.99986
10.420000	135.65621
10.430000	135.51367
10.440000	135.39627
10.450000	135.00162
10.460000	134.88162
10.470000	134.80483
10.480000	134.58571
10.490000	134.53875
10.500000	134.35579
10.510000	134.36567
10.520000	134.33400
10.530000	134.08123
10.540000	133.99207
10.550000	134.05838
10.560000	134.06316
10.570000	134.07465
10.580000	134.05829
10.590000	134.17050
10.600000	133.96695
10.610000	134.21393
10.620000	134.61061
10.630000	134.74272
10.640000	134.92491
10.650000	135.22035
10.660000	135.34504
10.670000	135.77087
10.680000	136.11882
10.690000	136.28979
10.700000	136.93385
10.710000	137.93807
10.720000	139.21389
10.730000	141.82302
10.740000	147.27112
10.750000	160.16647
10.760000	192.73086
10.770000	270.05578
10.780000	428.43701
10.790000	647.56409
10.800000	784.64640
10.810000	721.06478
10.820000	516.60249
10.830000	327.55765
10.840000	222.62716
10.850000	174.70346
10.860000	154.10467
10.870000	145.24408
10.880000	141.26603
10.890000	139.39159
10.900000	138.30731
10.910000	137.29710
10.920000	136.61706
10.930000	136.18200
10.940000	135.53147
10.950000	135.04097
10.960000	134.91831
10.970000	134.70341
10.980000	134.33258
10.990000	133.87309
11.000000	133.67106
11.010000	133.43887
11.020000	133.51028
11.030000	133.39936
11.040000	133.27824
11.050000	133.20326
11.060000	133.31842
11.070000	133.35317
11.080000	133.08782
11.090000	133.27541
11.100000	133.61903
11.110000	134.01376
11.120000	134.53727
11.130000	135.84434
11.140000	138.50642
11.150000	144.43248
11.160000	159.51480
11.170000	194.94924
11.180000	265.04330
11.190000	356.39273
11.200000	406.30919
11.210000	372.78321
11.220000	286.45092
11.230000	209.64865
11.240000	167.42003
11.250000	148.50785
11.260000	140.33598
11.270000	136.96931
11.280000	135.42716
11.290000	134.63832
11.300000	134.34056
11.310000	133.93370
11.320000	133.54341
11.330000	133.15284
11.340000	132.89515
11.350000	132.67799
11.360000	132.79866
11.370000	132.93121
11.380000	132.56630
11.390000	132.51956
11.400000	132.35910
11.410000	132.46374
11.420000	132.19831
11.430000	132.12465
11.440000	132.29801
11.450000	132.24746
11.460000	132.31076
11.470000	132.41791
11.480000	132.20705
11.490000	131.86155
11.500000	132.05862
11.510000	132.27081
11.520000	132.30489
11.530000	132.44891
11.540000	132.40728
11.550000	132.44504
11.560000	132.54386
11.570000	132.43601
11.580000	132.44540
11.590000	132.58624
11.600000	132.60144
11.610000	132.68877
11.620000	132.89841
11.630000	132.94786
11.640000	132.97906
11.650000	133.31504
11.660000	133.58438
11.670000	133.34150
11.680000	133.17470
11.690000	133.42156
11.700000	133.91425
11.710000	134.12480
11.720000	134.21097
11.730000	134.37500
11.740000	134.60587
11.750000	135.14022
11.760000	135.46516
11.770000	136.51429
11.780000	138.58105
11.790000	143.43214
11.800000	155.17366
11.810000	180.66047
11.820000	223.04886
11.830000	262.82364
11.840000	270.31288
11.850000	240.03544
11.860000	196.05754
11.870000	164.93263
11.880000	148.70969
11.890000	141.85889
11.900000	138.94703
11.910000	137.82231
11.920000	137.29325
11.930000	137.10354
11.940000	137.16845
11.950000	136.79894
11.960000	136.86226
11.970000	136.88863
11.980000	136.93079
11.990000	136.91532
12.000000	136.78793
12.010000	136.92248
12.020000	136.94356
12.030000	137.36724
12.040000	137.57902
12.050000	137.63057
12.060000	137.92294
12.070000	138.24665
12.080000	138.49612
12.090000	138.87112
12.100000	139.29723
12.110000	140.07294
12.120000	140.86483
12.130000	142.24352
12.140000	145.49471
12.150000	153.43897
12.160000	172.35462
12.170000	215.63062
12.180000	300.32977
12.190000	411.99818
12.200000	482.39060
12.210000	457.76304
12.220000	358.64010
12.230000	256.30017
12.240000	194.01974
12.250000	164.51879
12.260000	151.64634
12.270000	145.72222
12.280000	143.01745
12.290000	141.63479
12.300000	140.83051
12.310000	140.28524
12.320000	140.00776
12.330000	139.59997
12.340000	139.37876
12.350000	139.25200
12.360000	139.22261
12.370000	139.32739
12.380000	139.03616
12.390000	138.58054
12.400000	138.30254
12.410000	138.33036
12.420000	138.33919
12.430000	138.23442
12.440000	138.20026
12.450000	138.01383
12.460000	138.01380
12.470000	137.90145
12.480000	137.56990
12.490000	137.78612
12.500000	137.92836
12.510000	137.91260
12.520000	137.91391
12.530000	138.14733
12.540000	138.12736
12.550000	138.10550
12.560000	138.18515
12.570000	138.41819
12.580000	138.58540
12.590000	138.48471
12.600000	138.65771
12.610000	138.98704
12.620000	139.20978
12.630000	139.31844
12.640000	139.71218
12.650000	139.98599
12.660000	140.32187
12.670000	140.78002
12.680000	141.47986
12.690000	142.52933
12.700000	143.73627
12.710000	145.39295
12.720000	148.36524
12.730000	155.24321
12.740000	172.01028
12.750000	212.44229
12.760000	300.45283
12.770000	451.27922
12.780000	612.24806
12.790000	675.55341
12.800000	594.84752
12.810000	432.43165
12.820000	291.40293
12.830000	211.21952
12.840000	173.48982
12.850000	156.73290
12.860000	149.40744
12.870000	146.06552
12.880000	144.25254
12.890000	142.82060
12.900000	142.07634
12.910000	141.48427
12.920000	141.06402
12.930000	140.62254
12.940000	140.24512
12.950000	139.92000
12.960000	139.62379
12.970000	139.22213
12.980000	138.99450
12.990000	139.10615
13.000000	139.04806
13.010000	139.07820
13.020000	138.88404
13.030000	139.00403
13.040000	139.43738
13.050000	140.25719
13.060000	142.18586
13.070000	146.94906
13.080000	158.28136
13.090000	185.12492
13.100000	243.83297
13.110000	341.61201
13.120000	442.01398
13.130000	479.07340
13.140000	426.15354
13.150000	322.19044
13.160000	232.00230
13.170000	180.27780
13.180000	155.60290
13.190000	144.46254
13.200000	139.51342
13.210000	137.19985
13.220000	135.83185
13.230000	134.93722
13.240000	134.21630
13.250000	133.26257
13.260000	132.80792
13.270000	132.50455
13.280000	131.93943
13.290000	131.59154
13.300000	131.13346
13.310000	130.63325
13.320000	130.17820
13.330000	129.90861
13.340000	129.86092
13.350000	129.52242
13.360000	129.15830
13.370000	128.79480
13.380000	128.40958
13.390000	128.33150
13.400000	128.09989
13.410000	127.75800
13.420000	127.62319
13.430000	127.27166
13.440000	127.06288
13.450000	126.69707
13.460000	126.52305
13.470000	126.29586
13.480000	126.26424
13.490000	126.05096
13.500000	125.87968
13.510000	125.74249
13.520000	125.35563
13.530000	125.29394
13.540000	124.96207
13.550000	124.97895
13.560000	125.29332
13.570000	125.14069
13.580000	125.05080
13.590000	124.92521
13.600000	124.67385
13.610000	124.92149
13.620000	125.84584
13.630000	127.34800
13.640000	131.62087
13.650000	140.81120
13.660000	154.01467
13.670000	165.50082
13.680000	167.36486
13.690000	158.44092
13.700000	145.09955
13.710000	134.32217
13.720000	128.12711
13.730000	125.30781
13.740000	124.01583
13.750000	123.40232
13.760000	123.04005
13.770000	122.60971
13.780000	122.46085
13.790000	122.67757
13.800000	122.56030
13.810000	122.59105
13.820000	122.55461
13.830000	122.35489
13.840000	122.02669
13.850000	122.02776
13.860000	122.11909
13.870000	122.01327
13.880000	122.00644
13.890000	121.85683
13.900000	121.55613
13.910000	121.77965
13.920000	122.36474
13.930000	123.11489
13.940000	124.67201
13.950000	128.36642
13.960000	137.07339
13.970000	154.24090
13.980000	177.66536
13.990000	195.99856
14.000000	196.87298
14.010000	179.82939
14.020000	156.25128
14.030000	138.24806
14.040000	128.86252
14.050000	124.18614
14.060000	122.26029
14.070000	121.24208
14.080000	120.76724
14.090000	120.60731
14.100000	120.40661
14.110000	120.10804
14.120000	119.83031
14.130000	119.85975
14.140000	119.89654
14.150000	119.71622
14.160000	119.57658
14.170000	119.48253
14.180000	119.35188
14.190000	119.43858
14.200000	119.27154
14.210000	119.16214
14.220000	119.18283
14.230000	119.18667
14.240000	119.32505
14.250000	119.27747
14.260000	119.17188
14.270000	119.19106
14.280000	119.15147
14.290000	119.02517
14.300000	119.20226
14.310000	119.38123
14.320000	119.35559
14.330000	119.41093
14.340000	119.41351
14.350000	119.37168
14.360000	119.49112
14.370000	119.89719
14.380000	120.09438
14.390000	119.84823
14.400000	119.87488
14.410000	120.24868
14.420000	120.65658
14.430000	121.26271
14.440000	122.44444
14.450000	125.06240
14.460000	131.08367
14.470000	144.87128
14.480000	174.61829
14.490000	224.02817
14.500000	278.22550
14.510000	305.98959
14.520000	289.94102
14.530000	240.72326
14.540000	188.35513
14.550000	153.73835
14.560000	135.69644
14.570000	127.49557
14.580000	123.79623
14.590000	122.20057
14.600000	121.49061
14.610000	120.89562
14.620000	120.60951
14.630000	120.28246
14.640000	120.03370
14.650000	119.77225
14.660000	119.86621
14.670000	120.10933
14.680000	119.92002
14.690000	120.06542
14.700000	119.92463
14.710000	119.73980
14.720000	119.82448
14.730000	120.22512
14.740000	120.81126
14.750000	122.33632
14.760000	126.44250
14.770000	135.19451
14.780000	153.97334
14.790000	186.72618
14.800000	223.96352
14.810000	245.27316
14.820000	237.57743
14.830000	205.65535
14.840000	169.10138
14.850000	143.68405
14.860000	130.07972
14.870000	123.75068
14.880000	120.70144
14.890000	119.18640
14.900000	118.50164
14.910000	118.23160
14.920000	117.98505
14.930000	117.64670
14.940000	117.42250
14.950000	117.28527
14.960000	117.01372
14.970000	116.97379
14.980000	117.17058
14.990000	116.89228
15.000000	116.73153
15.010000	116.43588
15.020000	116.19254
15.030000	116.21412
15.040000	116.33070
15.050000	116.12987
15.060000	116.18811
15.070000	116.14590
15.080000	115.92578
15.090000	115.74716
15.100000	115.83538
15.110000	115.81286
15.120000	115.64573
15.130000	115.64213
15.140000	115.59626
15.150000	115.61138
15.160000	115.79225
15.170000	115.74729
15.180000	115.55120
15.190000	115.73628
15.200000	116.15301
15.210000	116.46434
15.220000	116.77944
15.230000	117.18902
15.240000	118.60898
15.250000	121.37810
15.260000	128.34871
15.270000	142.80640
15.280000	166.35027
15.290000	191.35549
15.300000	203.80062
15.310000	196.73802
15.320000	174.43801
15.330000	149.77726
15.340000	132.66605
15.350000	123.69586
15.360000	119.44537
15.370000	117.81354
15.380000	116.93683
15.390000	116.42445
15.400000	116.26299
15.410000	116.08259
15.420000	116.01593
15.430000	116.07180
15.440000	115.84536
15.450000	115.82695
15.460000	115.94140
15.470000	116.02408
15.480000	116.23406
15.490000	116.36380
15.500000	116.41781
15.510000	117.02893
15.520000	118.10482
15.530000	120.55928
15.540000	126.59930
15.550000	139.16676
15.560000	163.38880
15.570000	196.69873
15.580000	224.80527
15.590000	231.82017
15.600000	213.84678
15.610000	181.22788
15.620000	151.42373
15.630000	133.41049
15.640000	124.17742
15.650000	119.82785
15.660000	117.86863
15.670000	116.61339
15.680000	116.01894
15.690000	115.78540
15.700000	115.50783
15.710000	115.46400
15.720000	115.12188
15.730000	114.97404
15.740000	114.70191
15.750000	114.62489
15.760000	114.55733
15.770000	114.44043
15.780000	114.43988
15.790000	114.49504
15.800000	114.34701
15.810000	114.05046
15.820000	114.17244
15.830000	114.16617
15.840000	114.02376
15.850000	114.06281
15.860000	113.94131
15.870000	113.88427
15.880000	113.97654
15.890000	113.96692
15.900000	113.92369
15.910000	113.76564
15.920000	113.91193
15.930000	114.05038
15.940000	114.18113
15.950000	114.12398
15.960000	114.15202
15.970000	114.37338
15.980000	114.65395
15.990000	115.52675
16.000000	117.57774
16.010000	122.03271
16.020000	131.56995
16.030000	147.56867
16.040000	165.76446
16.050000	177.34737
16.060000	175.50102
16.070000	161.47303
16.080000	143.39739
16.090000	129.35365
16.100000	121.28542
16.110000	117.23458
16.120000	115.36770
16.130000	114.60213
16.140000	114.12343
16.150000	113.98724
16.160000	113.59550
16.170000	113.42086
16.180000	113.49362
16.190000	113.41882
16.200000	113.45517
16.210000	113.51986
16.220000	113.54694
16.230000	113.56103
16.240000	113.66708
16.250000	114.00758
16.260000	114.48323
16.270000	115.83596
16.280000	118.91138
16.290000	125.73090
16.300000	137.95202
16.310000	153.79050
16.320000	166.53823
16.330000	169.10653
16.340000	160.04390
16.350000	144.82833
16.360000	130.50999
16.370000	121.47210
16.380000	116.80396
16.390000	114.50870
16.400000	113.55018
16.410000	112.91233
16.420000	112.77334
16.430000	112.58300
16.440000	112.47396
16.450000	112.36236
16.460000	112.37751
16.470000	112.21479
16.480000	111.78323
16.490000	111.77803
16.500000	111.67182
16.510000	111.58203
16.520000	111.61205
16.530000	111.74683
16.540000	111.81675
16.550000	111.82976
16.560000	111.46697
16.570000	111.54075
16.580000	111.64592
16.590000	111.66363
16.600000	111.36511
16.610000	111.30925
16.620000	111.46269
16.630000	111.46195
16.640000	111.64990
16.650000	111.85802
16.660000	111.90473
16.670000	111.91685
16.680000	111.93494
16.690000	112.03723
16.700000	112.40981
16.710000	113.38181
16.720000	114.88210
16.730000	118.53541
16.740000	126.08371
16.750000	138.00109
16.760000	151.15611
16.770000	158.76291
16.780000	156.71576
16.790000	146.91335
16.800000	134.26102
16.810000	123.73752
16.820000	117.47877
16.830000	114.63674
16.840000	113.28461
16.850000	112.64817
16.860000	112.36605
16.870000	111.88838
16.880000	111.93942
16.890000	112.23073
16.900000	112.07571
16.910000	111.94897
16.920000	111.90459
16.930000	112.07389
16.940000	112.10949
16.950000	112.40299
16.960000	112.79392
16.970000	113.59470
16.980000	115.58579
16.990000	119.89818
17.000000	128.85083
17.010000	143.76359
17.020000	161.71723
17.030000	173.88098
17.040000	174.52551
17.050000	163.15434
17.060000	145.94236
17.070000	130.66433
17.080000	121.14332
17.090000	116.47135
17.100000	113.99265
17.110000	112.86531
17.120000	112.47720
17.130000	112.12891
17.140000	112.01848
17.150000	111.97927
17.160000	111.73033
17.170000	111.86570
17.180000	111.79779
17.190000	111.76691
17.200000	111.75765
17.210000	111.49758
17.220000	111.56662
17.230000	111.49597
17.240000	111.78316
17.250000	111.81394
17.260000	111.78509
17.270000	111.86001
17.280000	111.77471
17.290000	111.64641
17.300000	111.83695
17.310000	111.97265
17.320000	111.78279
17.330000	112.17050
17.340000	112.25570
17.350000	112.29909
17.360000	112.55899
17.370000	113.04955
17.380000	113.56253
17.390000	114.05659
17.400000	115.61347
17.410000	119.40444
17.420000	127.97967
17.430000	144.74837
17.440000	171.51020
17.450000	200.36469
17.460000	218.10172
17.470000	215.90802
17.480000	195.06803
17.490000	166.25428
17.500000	142.16379
17.510000	127.18699
17.520000	119.67391
17.530000	116.13335
17.540000	114.51421
17.550000	113.53523
17.560000	113.11947
17.570000	112.71179
17.580000	112.74702
17.590000	112.69580
17.600000	112.53473
17.610000	112.30781
17.620000	112.08182
17.630000	112.27802
17.640000	112.48391
17.650000	113.01912
17.660000	114.33567
17.670000	117.45008
17.680000	124.12753
17.690000	134.90666
17.700000	148.19367
17.710000	157.68544
17.720000	159.06041
17.730000	151.34333
17.740000	138.43955
17.750000	126.72254
17.760000	118.71805
17.770000	114.66417
17.780000	112.73271
17.790000	111.43411
17.800000	111.10789
17.810000	110.74197
17.820000	110.41554
17.830000	110.26479
17.840000	110.19868
17.850000	110.06551
17.860000	109.93038
17.870000	110.04073
17.880000	109.81466
17.890000	109.48641
17.900000	109.41180
17.910000	109.41250
17.920000	109.45411
17.930000	109.27888
17.940000	109.33273
17.950000	109.27689
17.960000	109.11338
17.970000	109.22906
17.980000	109.10321
17.990000	109.05730
18.000000	109.00164
18.010000	108.90318
18.020000	108.76630
18.030000	108.67688
18.040000	108.70501
18.050000	108.93706
18.060000	108.85613
18.070000	108.66127
18.080000	108.55748
18.090000	108.54260
18.100000	108.64032
18.110000	108.43623
18.120000	108.39953
18.130000	108.51350
18.140000	108.50115
18.150000	108.41906
18.160000	108.32417
18.170000	108.45054
18.180000	108.38178
18.190000	108.09632
18.200000	108.01556
18.210000	108.15353
18.220000	108.02963
18.230000	108.35431
18.240000	108.59347
18.250000	108.53023
18.260000	108.51262
18.270000	108.21019
18.280000	107.93219
18.290000	108.23599
18.300000	108.74329
18.310000	109.16876
18.320000	110.29260
18.330000	112.74274
18.340000	117.02655
18.350000	123.13982
18.360000	129.53162
18.370000	132.92188
18.380000	131.66020
18.390000	127.03349
18.400000	120.68391
18.410000	115.04966
18.420000	111.52169
18.430000	109.56290
18.440000	108.89108
18.450000	108.51975
18.460000	108.25526
18.470000	108.03750
18.480000	108.17091
18.490000	108.27982
18.500000	108.16912
18.510000	108.00671
18.520000	107.94588
18.530000	107.80345
18.540000	107.64160
18.550000	107.53047
18.560000	107.55593
18.570000	107.61607
18.580000	107.78775
18.590000	107.79556
18.600000	107.86759
18.610000	107.82606
18.620000	107.72304
18.630000	107.55810
18.640000	107.75693
18.650000	107.80606
18.660000	107.88509
18.670000	107.95465
18.680000	108.00543
18.690000	108.25250
18.700000	108.59636
18.710000	109.64302
18.720000	111.56392
18.730000	116.09580
18.740000	123.69797
18.750000	134.39743
18.760000	144.65040
18.770000	149.68209
18.780000	147.55879
18.790000	139.10305
18.800000	128.30893
18.810000	118.99886
18.820000	113.28582
18.830000	110.29104
18.840000	108.96484
18.850000	108.39100
18.860000	108.09747
18.870000	107.75281
18.880000	107.90094
18.890000	107.83952
18.900000	107.62548
18.910000	107.61420
18.920000	107.45610
18.930000	107.48852
18.940000	107.96978
18.950000	108.56328
18.960000	109.79356
18.970000	112.30548
18.980000	116.73114
18.990000	121.47557
19.000000	125.20657
19.010000	126.09883
19.020000	123.26732
19.030000	118.78205
19.040000	114.24542
19.050000	110.49920
19.060000	108.40883
19.070000	107.57197
19.080000	107.31394
19.090000	106.97324
19.100000	106.61474
19.110000	106.38442
19.120000	106.22407
19.130000	106.59620
19.140000	106.59993
19.150000	106.50179
19.160000	106.43372
19.170000	106.22729
19.180000	106.25966
19.190000	106.03790
19.200000	106.02452
19.210000	106.02687
19.220000	105.87461
19.230000	106.02433
19.240000	105.89181
19.250000	105.68294
19.260000	105.59262
19.270000	105.63993
19.280000	105.87253
19.290000	106.13994
19.300000	106.12021
19.310000	106.08933
19.320000	106.22139
19.330000	106.39738
19.340000	106.39577
19.350000	107.07519
19.360000	108.62539
19.370000	110.71141
19.380000	113.09353
19.390000	114.19983
19.400000	114.02817
19.410000	112.58313
19.420000	110.62136
19.430000	108.69506
19.440000	107.42646
19.450000	106.53969
19.460000	106.13850
19.470000	106.17129
19.480000	106.11439
19.490000	106.09768
19.500000	106.06346
19.510000	105.92179
19.520000	105.93265
19.530000	106.31458
19.540000	106.47334
19.550000	107.02944
19.560000	107.81889
19.570000	109.70584
19.580000	113.56547
19.590000	120.61803
19.600000	130.05823
19.610000	138.82407
19.620000	143.61926
19.630000	142.02378
19.640000	135.09290
19.650000	125.65331
19.660000	117.24808
19.670000	111.36294
19.680000	108.19953
19.690000	106.95437
19.700000	106.13455
19.710000	105.88058
19.720000	105.79160
19.730000	105.70662
19.740000	105.37917
19.750000	105.35685
19.760000	105.34402
19.770000	105.27306
19.780000	105.18355
19.790000	105.01974
19.800000	105.04660
19.810000	105.07261
19.820000	105.18785
19.830000	104.97309
19.840000	104.82106
19.850000	104.83174
19.860000	104.80574
19.870000	104.72020
19.880000	104.75095
19.890000	104.94163
19.900000	105.00324
19.910000	105.04145
19.920000	105.12395
19.930000	105.74045
19.940000	106.63135
19.950000	108.61179
19.960000	112.41840
19.970000	118.20485
19.980000	124.68311
19.990000	129.68258
20.000000	131.09288
20.010000	127.93563
20.020000	122.01656
20.030000	115.41687
20.040000	110.38565
20.050000	107.51777
20.060000	106.02574
20.070000	105.21647
20.080000	104.70180
20.090000	104.49201
20.100000	104.53526
20.110000	104.32322
20.120000	104.44817
20.130000	104.53661
20.140000	104.76432
20.150000	104.78769
20.160000	105.09572
20.170000	106.48099
20.180000	108.83513
20.190000	112.57163
20.200000	116.82603
20.210000	120.59103
20.220000	122.26434
20.230000	120.57578
20.240000	116.53439
20.250000	111.94997
20.260000	108.20251
20.270000	106.13068
20.280000	104.86306
20.290000	104.20147
20.300000	104.05891
20.310000	103.78094
20.320000	103.65375
20.330000	103.64267
20.340000	103.50650
20.350000	103.49985
20.360000	103.31335
20.370000	103.32431
20.380000	103.31492
20.390000	103.13363
20.400000	102.96963
20.410000	103.19402
20.420000	103.22586
20.430000	103.21302
20.440000	103.28572
20.450000	103.28602
20.460000	103.13115
20.470000	103.00078
20.480000	102.97117
20.490000	102.88231
20.500000	103.13739
20.510000	103.19147
20.520000	103.26843
20.530000	103.97401
20.540000	105.48252
20.550000	107.69713
20.560000	110.88905
20.570000	113.92334
20.580000	115.77893
20.590000	115.69668
20.600000	113.44872
20.610000	110.48932
20.620000	107.51919
20.630000	105.07893
20.640000	103.81636
20.650000	103.24944
20.660000	102.97377
20.670000	102.72013
20.680000	102.71149
20.690000	102.63235
20.700000	102.39811
20.710000	102.49020
20.720000	102.59442
20.730000	102.70986
20.740000	103.09431
20.750000	103.82154
20.760000	105.29800
20.770000	107.74182
20.780000	110.46413
20.790000	112.74249
20.800000	113.61418
20.810000	112.84394
20.820000	110.56145
20.830000	107.71141
20.840000	105.33544
20.850000	103.88079
20.860000	103.12661
20.870000	102.46868
20.880000	102.21538
20.890000	102.07958
20.900000	101.97757
20.910000	102.06115
20.920000	102.07138
20.930000	102.08729
20.940000	102.06110
20.950000	102.05412
20.960000	102.01862
20.970000	101.95018
20.980000	101.94102
20.990000	101.93591
21.000000	101.78638
21.010000	102.00300
21.020000	101.91679
21.030000	101.86016
21.040000	101.69335
21.050000	101.72703
21.060000	102.14789
21.070000	102.18044
21.080000	102.50796
21.090000	102.91896
21.100000	104.34858
21.110000	106.84241
21.120000	111.14547
21.130000	116.90505
21.140000	122.99635
21.150000	126.96296
21.160000	127.05218
21.170000	123.50067
21.180000	117.87360
21.190000	111.96957
21.200000	107.43979
21.210000	104.84248
21.220000	103.20207
21.230000	102.50182
21.240000	102.32903
21.250000	102.09236
21.260000	101.85980
21.270000	101.86390
21.280000	101.90635
21.290000	101.87259
21.300000	102.14899
21.310000	102.93690
21.320000	104.58489
21.330000	107.05057
21.340000	110.55343
21.350000	114.24597
21.360000	116.63122
21.370000	116.76500
21.380000	114.65135
21.390000	111.20815
21.400000	107.37304
21.410000	104.52194
21.420000	102.91564
21.430000	101.93409
21.440000	101.35339
21.450000	100.96916
21.460000	101.11355
21.470000	100.85480
21.480000	100.46324
21.490000	100.40160
21.500000	100.63950
21.510000	100.50862
21.520000	100.53067
21.530000	100.41208
21.540000	100.40341
21.550000	100.56165
21.560000	100.48136
21.570000	100.47066
21.580000	100.50591
21.590000	100.17480
21.600000	100.12872
21.610000	100.21621
21.620000	100.16032
21.630000	100.15910
21.640000	100.21930
21.650000	100.60953
21.660000	101.19382
21.670000	101.79114
21.680000	103.09554
21.690000	104.62262
21.700000	106.19627
21.710000	106.80286
21.720000	106.75232
21.730000	105.47233
21.740000	103.70059
21.750000	102.30844
21.760000	101.32641
21.770000	100.48900
21.780000	100.06060
21.790000	100.04508
21.800000	99.873796
21.810000	99.715433
21.820000	99.686910
21.830000	99.753857
21.840000	99.850646
21.850000	99.912103
21.860000	100.15527
21.870000	100.36199
21.880000	100.77043
21.890000	101.64815
21.900000	102.17488
21.910000	102.61021
21.920000	102.78760
21.930000	102.41439
21.940000	101.94039
21.950000	101.08589
21.960000	100.12961
21.970000	99.922766
21.980000	99.744927
21.990000	99.584384
22.000000	99.639281
22.010000	99.604163
22.020000	99.441412
22.030000	99.346815
22.040000	99.264272
22.050000	99.413611
22.060000	99.606687
22.070000	99.512566
22.080000	99.313052
22.090000	99.556114
22.100000	99.651970
22.110000	99.749056
22.120000	99.742034
22.130000	99.892254
22.140000	99.743646
22.150000	99.914966
22.160000	99.762813
22.170000	99.876455
22.180000	100.05471
22.190000	100.39334
22.200000	100.88670
22.210000	102.04669
22.220000	103.93163
22.230000	106.81852
22.240000	109.28455
22.250000	111.00145
22.260000	111.14904
22.270000	109.69021
22.280000	107.15155
22.290000	104.48242
22.300000	102.31841
22.310000	101.00799
22.320000	100.38060
22.330000	100.03350
22.340000	99.954347
22.350000	99.886072
22.360000	99.769961
22.370000	99.924064
22.380000	99.871718
22.390000	100.08118
22.400000	100.91332
22.410000	102.36358
22.420000	104.44820
22.430000	107.36937
22.440000	110.70581
22.450000	112.51417
22.460000	112.71507
22.470000	111.01493
22.480000	108.44001
22.490000	105.21086
22.500000	102.41810
22.510000	100.89128
22.520000	100.00904
22.530000	99.603428
22.540000	99.405126
22.550000	99.374685
22.560000	99.587881
22.570000	99.349943
22.580000	99.177734
22.590000	99.040755
22.600000	99.202687
22.610000	99.024525
22.620000	99.031635
22.630000	99.012771
22.640000	98.903356
22.650000	98.963655
22.660000	99.198761
22.670000	98.960180
22.680000	98.574014
22.690000	98.551186
22.700000	98.601534
22.710000	98.790631
22.720000	98.733271
22.730000	99.156035
22.740000	99.847342
22.750000	100.48369
22.760000	101.50436
22.770000	102.57654
22.780000	103.27940
22.790000	103.45713
22.800000	103.00978
22.810000	102.20837
22.820000	100.89379
22.830000	100.00667
22.840000	99.372645
22.850000	99.067999
22.860000	98.908050
22.870000	98.894043
22.880000	98.951551
22.890000	98.951736
22.900000	98.752051
22.910000	98.717297
22.920000	99.101861
22.930000	100.07518
22.940000	101.48716
22.950000	103.55710
22.960000	106.09081
22.970000	108.35233
22.980000	109.69581
22.990000	109.39078
23.000000	107.63199
23.010000	105.08698
23.020000	102.74038
23.030000	101.08999
23.040000	99.851152
23.050000	99.079513
23.060000	98.609268
23.070000	98.486799
23.080000	98.415670
23.090000	98.418841
23.100000	98.378950
23.110000	98.372172
23.120000	98.494007
23.130000	98.372330
23.140000	98.218307
23.150000	98.210467
23.160000	98.142952
23.170000	98.232161
23.180000	98.318915
23.190000	98.366540
23.200000	98.170641
23.210000	98.118414
23.220000	98.402329
23.230000	98.451340
23.240000	98.567476
23.250000	98.999679
23.260000	99.916789
23.270000	101.32313
23.280000	103.08185
23.290000	104.63549
23.300000	105.90848
23.310000	106.01009
23.320000	105.07335
23.330000	103.50964
23.340000	101.79551
23.350000	100.38975
23.360000	99.225921
23.370000	98.449327
23.380000	98.371749
23.390000	98.332989
23.400000	98.326016
23.410000	98.192662
23.420000	98.030474
23.430000	98.266040
23.440000	98.401182
23.450000	98.618456
23.460000	99.207835
23.470000	100.02529
23.480000	100.59024
23.490000	101.21433
23.500000	101.53189
23.510000	101.35865
23.520000	100.66611
23.530000	99.748732
23.540000	99.118472
23.550000	98.701366
23.560000	98.429289
23.570000	98.292098
23.580000	97.998617
23.590000	97.804674
23.600000	97.416068
23.610000	97.751291
23.620000	97.734239
23.630000	97.784451
23.640000	97.696335
23.650000	97.640248
23.660000	97.761892
23.670000	97.730123
23.680000	97.415926
23.690000	97.444381
23.700000	97.562383
23.710000	97.598426
23.720000	97.556715
23.730000	97.760257
23.740000	97.671510
23.750000	97.840760
23.760000	97.741074
23.770000	98.032722
23.780000	98.319097
23.790000	98.442917
23.800000	98.551698
23.810000	98.579360
23.820000	98.706095
23.830000	98.610459
23.840000	98.490508
23.850000	98.387729
23.860000	97.956054
23.870000	97.853876
23.880000	97.576611
23.890000	97.622106
23.900000	97.850384
23.910000	97.846985
23.920000	97.937571
23.930000	97.970908
23.940000	98.128645
23.950000	98.558539
23.960000	99.272142
23.970000	100.78955
23.980000	102.12949
23.990000	103.12573
24.000000	103.99345
24.010000	103.84773
24.020000	102.90908
24.030000	101.83437
24.040000	100.43296
24.050000	99.255669
24.060000	98.658349
24.070000	98.174037
24.080000	97.956409
24.090000	97.833453
24.100000	97.958875
24.110000	97.966122
24.120000	98.051471
24.130000	97.806532
24.140000	98.046504
24.150000	98.120616
24.160000	97.942761
24.170000	98.010166
24.180000	97.993273
24.190000	98.009056
24.200000	97.954472
24.210000	98.110766
24.220000	98.025476
24.230000	98.095315
24.240000	98.486256
24.250000	98.815556
24.260000	99.351850
24.270000	100.61256
24.280000	102.65800
24.290000	104.99105
24.300000	106.85013
24.310000	108.01631
24.320000	107.83677
24.330000	106.63137
24.340000	104.54596
24.350000	102.49436
24.360000	100.54557
24.370000	99.213868
24.380000	98.860088
24.390000	98.529196
24.400000	98.503105
24.410000	98.403954
24.420000	98.351489
24.430000	98.538171
24.440000	98.543811
24.450000	98.851505
24.460000	99.920679
24.470000	101.01099
24.480000	102.22462
24.490000	102.93541
24.500000	103.16217
24.510000	102.92451
24.520000	101.90174
24.530000	100.87286
24.540000	99.741592
24.550000	98.785916
24.560000	98.154650
24.570000	97.911210
24.580000	97.796730
24.590000	98.132755
24.600000	98.340605
24.610000	98.042011
24.620000	97.871963
24.630000	97.668498
24.640000	97.600117
24.650000	97.491953
24.660000	97.713894
24.670000	97.736288
24.680000	97.728336
24.690000	97.649506
24.700000	97.753999
24.710000	97.722622
24.720000	97.493767
24.730000	97.591805
24.740000	97.769067
24.750000	97.982584
24.760000	98.215442
24.770000	98.648260
24.780000	99.159729
24.790000	99.562041
24.800000	99.798458
24.810000	99.843956
24.820000	99.602178
24.830000	98.911308
24.840000	98.377395
24.850000	97.955850
24.860000	97.722307
24.870000	97.466365
24.880000	97.461200
24.890000	97.591439
24.900000	97.728766
24.910000	97.555057
24.920000	97.597341
24.930000	97.979892
24.940000	98.351886
24.950000	99.057192
24.960000	99.497925
24.970000	100.06474
24.980000	100.39391
24.990000	100.65246
25.000000	100.40825
25.010000	99.453763
25.020000	98.776210
25.030000	98.154338
25.040000	97.684741
25.050000	97.355635
25.060000	97.298557
25.070000	97.236755
25.080000	97.224696
25.090000	97.465235
25.100000	97.445427
25.110000	97.283271
25.120000	97.267131
25.130000	97.206745
25.140000	97.227098
25.150000	97.341578
25.160000	97.270284
25.170000	97.152471
25.180000	97.287653
25.190000	97.148476
25.200000	97.063780
25.210000	97.566319
25.220000	97.851090
25.230000	98.245807
25.240000	99.381874
25.250000	101.00276
25.260000	102.75724
25.270000	104.50971
25.280000	105.27225
25.290000	105.30588
25.300000	104.38055
25.310000	102.89446
25.320000	100.96437
25.330000	99.291257
25.340000	98.533601
25.350000	97.877711
25.360000	97.611880
25.370000	97.336856
25.380000	97.263898
25.390000	97.250927
25.400000	97.360093
25.410000	97.717028
25.420000	98.083525
25.430000	99.093141
25.440000	100.09578
25.450000	100.52358
25.460000	100.63662
25.470000	100.60689
25.480000	100.27885
25.490000	99.461341
25.500000	98.485275
25.510000	97.721870
25.520000	97.243469
25.530000	97.186163
25.540000	96.756311
25.550000	96.769574
25.560000	96.591318
25.570000	96.690088
25.580000	96.533654
25.590000	96.743465
25.600000	96.562567
25.610000	96.357894
25.620000	96.180085
25.630000	96.326552
25.640000	96.284078
25.650000	96.568272
25.660000	96.422692
25.670000	96.455788
25.680000	96.393360
25.690000	96.538750
25.700000	96.719151
25.710000	97.111475
25.720000	97.593893
25.730000	98.284006
25.740000	99.348456
25.750000	99.803163
25.760000	99.687516
25.770000	99.255950
25.780000	98.769332
25.790000	97.982299
25.800000	97.365811
25.810000	96.885357
25.820000	96.422344
25.830000	96.356459
25.840000	96.305876
25.850000	96.269147
25.860000	96.363798
25.870000	96.456943
25.880000	96.882397
25.890000	97.484499
25.900000	97.959412
25.910000	98.860334
25.920000	99.861967
25.930000	100.10037
25.940000	100.00002
25.950000	99.167624
25.960000	98.431666
25.970000	97.687384
25.980000	96.672365
25.990000	96.231626
26.000000	96.071182
26.010000	95.892125
26.020000	95.937014
26.030000	95.698950
26.040000	95.702841
26.050000	95.742196
26.060000	95.658137
26.070000	95.635705
26.080000	95.584450
26.090000	95.268611
26.100000	95.209719
26.110000	95.312581
26.120000	95.293049
26.130000	95.447302
26.140000	95.415278
26.150000	95.143001
26.160000	95.198376
26.170000	95.507428
26.180000	95.809559
26.190000	96.278820
26.200000	96.336093
26.210000	96.561584
26.220000	96.730868
26.230000	96.714633
26.240000	96.553928
26.250000	95.975898
26.260000	95.611354
26.270000	95.623306
26.280000	95.359946
26.290000	95.013971
26.300000	95.294284
26.310000	95.138360
26.320000	94.968775
26.330000	95.178085
26.340000	95.492627
26.350000	95.493440
26.360000	95.577182
26.370000	95.994237
26.380000	96.241224
26.390000	96.342261
26.400000	96.510449
26.410000	95.985678
26.420000	95.753601
26.430000	95.477921
26.440000	95.168035
26.450000	95.161689
26.460000	94.977024
26.470000	94.804219
26.480000	94.648284
26.490000	94.554838
26.500000	94.608364
26.510000	94.873639
26.520000	94.808279
26.530000	94.762700
26.540000	94.654117
26.550000	94.634171
26.560000	94.410001
26.570000	94.631396
26.580000	94.765013
26.590000	94.754182
26.600000	94.555841
26.610000	94.416687
26.620000	94.602115
26.630000	94.675217
26.640000	94.643095
26.650000	94.583329
26.660000	94.402699
26.670000	94.270511
26.680000	94.281928
26.690000	94.222589
26.700000	94.622368
26.710000	94.786559
26.720000	94.514847
26.730000	94.675429
26.740000	94.699576
26.750000	94.380010
26.760000	94.420173
26.770000	94.782062
26.780000	94.861499
26.790000	94.922861
26.800000	95.341571
26.810000	95.830006
26.820000	96.392154
26.830000	97.023054
26.840000	97.390508
26.850000	97.394555
26.860000	97.116855
26.870000	96.525574
26.880000	95.886976
26.890000	95.427963
26.900000	95.017549
26.910000	94.851124
26.920000	94.536417
26.930000	94.614399
26.940000	94.630982
26.950000	94.594596
26.960000	94.666246
26.970000	94.710112
26.980000	94.759005
26.990000	94.770952
27.000000	94.535977
27.010000	94.393642
27.020000	94.593490
27.030000	94.840325
27.040000	94.582518
27.050000	94.867132
27.060000	95.174800
27.070000	95.165900
27.080000	95.732709
27.090000	96.765585
27.100000	97.411757
27.110000	98.349374
27.120000	98.951576
27.130000	98.901096
27.140000	98.789019
27.150000	98.159664
27.160000	97.454481
27.170000	96.440339
27.180000	95.558058
27.190000	95.226761
27.200000	95.121129
27.210000	94.856247
27.220000	94.892337
27.230000	95.008888
27.240000	95.207294
27.250000	95.809185
27.260000	96.659092
27.270000	97.246946
27.280000	97.891356
27.290000	98.165028
27.300000	98.286145
27.310000	98.013077
27.320000	97.463053
27.330000	96.383049
27.340000	95.809531
27.350000	95.514954
27.360000	95.105997
27.370000	94.855847
27.380000	94.861046
27.390000	94.353102
27.400000	94.275572
27.410000	94.299412
27.420000	94.589452
27.430000	94.507050
27.440000	94.524645
27.450000	94.081398
27.460000	94.359583
27.470000	94.499298
27.480000	94.307213
27.490000	94.285425
27.500000	94.322034
27.510000	94.124509
27.520000	94.027277
27.530000	93.976747
27.540000	94.246843
27.550000	94.463200
27.560000	94.361979
27.570000	94.290312
27.580000	94.324398
27.590000	94.262543
27.600000	94.247160
27.610000	94.464469
27.620000	94.538118
27.630000	94.222317
27.640000	94.343319
27.650000	94.239999
27.660000	94.243264
27.670000	94.439922
27.680000	94.571713
27.690000	94.637208
27.700000	95.303011
27.710000	95.689538
27.720000	95.857044
27.730000	95.992955
27.740000	95.859568
27.750000	95.719138
27.760000	95.354666
27.770000	94.964753
27.780000	94.543412
27.790000	94.328769
27.800000	94.291486
27.810000	94.201528
27.820000	94.021938
27.830000	94.036643
27.840000	94.286356
27.850000	94.439186
27.860000	94.468670
27.870000	94.272109
27.880000	94.209751
27.890000	94.280122
27.900000	94.374254
27.910000	94.508692
27.920000	94.371857
27.930000	94.240754
27.940000	94.610572
27.950000	94.777950
27.960000	95.064579
27.970000	95.860903
27.980000	96.468223
27.990000	97.134562
28.000000	97.472326
28.010000	97.396480
28.020000	97.213316
28.030000	96.685979
28.040000	96.049721
28.050000	95.391901
28.060000	94.990058
28.070000	94.403999
28.080000	94.353564
28.090000	94.023655
28.100000	94.115633
28.110000	94.414250
28.120000	94.782512
28.130000	94.487815
28.140000	94.675470
28.150000	94.535787
28.160000	94.717689
28.170000	94.997271
28.180000	94.569719
28.190000	94.477344
28.200000	94.332037
28.210000	94.281298
28.220000	94.126229
28.230000	94.187029
28.240000	94.135110
28.250000	93.887740
28.260000	94.054632
28.270000	93.956847
28.280000	93.804073
28.290000	93.824711
28.300000	93.929604
28.310000	93.954925
28.320000	93.766235
28.330000	93.825907
28.340000	93.899001
28.350000	93.882961
28.360000	93.921374
28.370000	94.225924
28.380000	94.515152
28.390000	94.659277
28.400000	94.747035
28.410000	95.091852
28.420000	95.477390
28.430000	95.413606
28.440000	95.556576
28.450000	95.537588
28.460000	95.222277
28.470000	94.892997
28.480000	94.455490
28.490000	94.146444
28.500000	94.144545
28.510000	94.116272
28.520000	94.207505
28.530000	94.362400
28.540000	94.299539
28.550000	94.497831
28.560000	94.871846
28.570000	95.036794
28.580000	95.151814
28.590000	95.564719
28.600000	95.876805
28.610000	95.771837
28.620000	95.567413
28.630000	94.994319
28.640000	94.621202
28.650000	94.567334
28.660000	94.217776
28.670000	94.085082
28.680000	93.914449
28.690000	93.949169
28.700000	93.942167
28.710000	94.016836
28.720000	93.929056
28.730000	93.960350
28.740000	94.140029
28.750000	93.786645
28.760000	93.811793
28.770000	93.936394
28.780000	94.096818
28.790000	94.132632
28.800000	93.900414
28.810000	93.900112
28.820000	94.177204
28.830000	94.424590
28.840000	94.848367
28.850000	95.291706
28.860000	95.348332
28.870000	94.970039
28.880000	94.788833
28.890000	94.853476
28.900000	94.434410
28.910000	93.853294
28.920000	93.737992
28.930000	94.091542
28.940000	94.076614
28.950000	93.791327
28.960000	93.865084
28.970000	93.965134
28.980000	94.160087
28.990000	94.593584
29.000000	94.604560
29.010000	94.868335
29.020000	94.608445
29.030000	94.657028
29.040000	94.606993
29.050000	94.323841
29.060000	94.093744
29.070000	93.840428
29.080000	93.591554
29.090000	93.726128
29.100000	93.623283
29.110000	93.586617
29.120000	93.581829
29.130000	93.695202
29.140000	93.842395
29.150000	93.631053
29.160000	93.364473
29.170000	93.319919
29.180000	93.345272
29.190000	93.498913
29.200000	93.582204
29.210000	93.575177
29.220000	93.820923
29.230000	93.601267
29.240000	93.953956
29.250000	94.155302
29.260000	94.065526
29.270000	94.460556
29.280000	94.204385
29.290000	94.182074
29.300000	94.501470
29.310000	94.237169
29.320000	93.863645
29.330000	93.796221
29.340000	93.955637
29.350000	93.750012
29.360000	93.860390
29.370000	93.571024
29.380000	93.833857
29.390000	94.193438
29.400000	93.948483
29.410000	94.200546
29.420000	94.560133
29.430000	94.680516
29.440000	94.730194
29.450000	94.165349
29.460000	94.159176
29.470000	94.380215
29.480000	94.065341
29.490000	93.902697
29.500000	93.599821
29.510000	93.635183
29.520000	93.649051
29.530000	93.288014
29.540000	93.482153
29.550000	93.735270
29.560000	93.472030
29.570000	93.381103
29.580000	93.288047
29.590000	93.120452
29.600000	93.091304
29.610000	93.361698
29.620000	93.218675
29.630000	93.456872
29.640000	94.412897
29.650000	94.888247
29.660000	95.064225
29.670000	95.507907
29.680000	95.600683
29.690000	95.820925
29.700000	95.776783
29.710000	95.523269
29.720000	95.265062
29.730000	94.990740
29.740000	94.085346
29.750000	93.967596
29.760000	93.832732
29.770000	93.623048
29.780000	93.714866
29.790000	93.865604
29.800000	93.621617
29.810000	94.233143
29.820000	94.703112
29.830000	94.826757
29.840000	95.381442
29.850000	95.413660
29.860000	95.612688
29.870000	94.666694
29.880000	94.332508
29.890000	94.407245
29.900000	93.984544
29.910000	93.547344
29.920000	93.304260
29.930000	93.343905
29.940000	93.171879
29.950000	93.309777
29.960000	93.040277
29.970000	93.221193
29.980000	93.116410
29.990000	92.923496
30.000000	92.979291
30.010000	92.823493
30.020000	92.995941
30.030000	93.003418
30.040000	93.077716
30.050000	92.898980
30.060000	93.098465
30.070000	93.200692
30.080000	93.648562
30.090000	93.601107
30.100000	93.338743
30.110000	93.628857
30.120000	93.463650
30.130000	93.365845
30.140000	93.022386
30.150000	92.899192
30.160000	93.092712
30.170000	93.004498
30.180000	93.179113
30.190000	92.916786
30.200000	93.155885
30.210000	93.177550
30.220000	92.942279
30.230000	93.106485
30.240000	93.171834
30.250000	93.122289
30.260000	93.440823
30.270000	93.374008
30.280000	93.548967
30.290000	93.082077
30.300000	92.702909
30.310000	92.677428
30.320000	92.789021
30.330000	92.671739
30.340000	92.764737
30.350000	92.667010
30.360000	92.443373
30.370000	92.664825
30.380000	92.985735
30.390000	92.794097
30.400000	92.691930
30.410000	92.686106
30.420000	92.713009
30.430000	92.602955
30.440000	92.353719
30.450000	92.566672
30.460000	92.952015
30.470000	92.686010
30.480000	92.857011
30.490000	93.313230
30.500000	93.428105
30.510000	93.067680
30.520000	92.955873
30.530000	93.049019
30.540000	92.718479
30.550000	92.661458
30.560000	92.431628
30.570000	92.351966
30.580000	92.362647
30.590000	92.712586
30.600000	92.692781
30.610000	92.624852
30.620000	92.832512
30.630000	93.203722
30.640000	93.204892
30.650000	93.353725
30.660000	93.441950
30.670000	93.165153
30.680000	93.260572
30.690000	93.101913
30.700000	92.875532
30.710000	92.837653
30.720000	92.514374
30.730000	92.368284
30.740000	92.357100
30.750000	92.486187
30.760000	92.198672
30.770000	92.258974
30.780000	92.501112
30.790000	92.686051
30.800000	92.001260
30.810000	92.223681
30.820000	92.249816
30.830000	92.070184
30.840000	92.184154
30.850000	92.093331
30.860000	92.278366
30.870000	92.365073
30.880000	92.392549
30.890000	92.174263
30.900000	92.407279
30.910000	92.330741
30.920000	92.387120
30.930000	92.405563
30.940000	92.502217
30.950000	92.023634
30.960000	91.835591
30.970000	91.861057
30.980000	92.401974
30.990000	92.334073
31.000000	92.033884
31.010000	92.109018
31.020000	92.345671
31.030000	92.349083
31.040000	92.226750
31.050000	92.292179
31.060000	92.628701
31.070000	92.445090
31.080000	92.425248
31.090000	92.503423
31.100000	92.220706
31.110000	92.030767
31.120000	91.992483
31.130000	92.110729
31.140000	92.194180
31.150000	91.561248
31.160000	91.673673
31.170000	91.809604
31.180000	92.070850
31.190000	91.821819
31.200000	91.949900
31.210000	91.892116
31.220000	91.810128
31.230000	91.814574
31.240000	91.622078
31.250000	91.638190
31.260000	92.101645
31.270000	92.199069
31.280000	92.324394
31.290000	92.392914
31.300000	92.454759
31.310000	92.375426
31.320000	92.460755
31.330000	92.300066
31.340000	92.451566
31.350000	91.857059
31.360000	91.585680
31.370000	91.857333
31.380000	91.810439
31.390000	91.482288
31.400000	91.659036
31.410000	91.565849
31.420000	91.996461
31.430000	91.930553
31.440000	91.988861
31.450000	92.159714
31.460000	92.167933
31.470000	92.242824
31.480000	92.109922
31.490000	91.990224
31.500000	91.661218
31.510000	91.632556
31.520000	91.699127
31.530000	91.646704
31.540000	91.674440
31.550000	91.663938
31.560000	91.665126
31.570000	91.507019
31.580000	91.617885
31.590000	91.261515
31.600000	91.511264
31.610000	91.377566
31.620000	91.258121
31.630000	91.554729
31.640000	91.457064
31.650000	91.685645
31.660000	91.958057
31.670000	91.956919
31.680000	92.112402
31.690000	92.020678
31.700000	92.109817
31.710000	92.072888
31.720000	92.012725
31.730000	91.886500
31.740000	91.836832
31.750000	91.604152
31.760000	91.103882
31.770000	91.488453
31.780000	91.901589
31.790000	91.999426
31.800000	91.820016
31.810000	91.955858
31.820000	91.964848
31.830000	92.124501
31.840000	92.270164
31.850000	92.013061
31.860000	91.771505
31.870000	91.911542
31.880000	91.997822
31.890000	91.743037
31.900000	91.558671
31.910000	91.367961
31.920000	91.427671
31.930000	91.461630
31.940000	91.528585
31.950000	91.348787
31.960000	91.775974
31.970000	91.587787
31.980000	91.705740
31.990000	91.372501
32.000000	91.179180
32.010000	91.035114
32.020000	91.638446
32.030000	91.722087
32.040000	92.214338
32.050000	92.411479
32.060000	92.524733
32.070000	92.898694
32.080000	92.561484
32.090000	92.518319
32.100000	92.447217
32.110000	92.213142
32.120000	92.243265
32.130000	91.931224
32.140000	91.578977
32.150000	91.433865
32.160000	91.330799
32.170000	91.303235
32.180000	91.874927
32.190000	91.983478
32.200000	91.860936
32.210000	91.759709
32.220000	91.948892
32.230000	91.860233
32.240000	91.867882
32.250000	91.674303
32.260000	91.609574
32.270000	91.418220
32.280000	91.540412
32.290000	91.415156
32.300000	91.175941
32.310000	91.358715
32.320000	91.382610
32.330000	91.241808
32.340000	91.005043
32.350000	91.129924
32.360000	91.276534
32.370000	91.165417
32.380000	91.182149
32.390000	90.921482
32.400000	90.976454
32.410000	91.315748
32.420000	91.311853
32.430000	91.438528
32.440000	91.332129
32.450000	91.075531
32.460000	91.235788
32.470000	91.194041
32.480000	91.105267
32.490000	90.832282
32.500000	91.260786
32.510000	91.198997
32.520000	91.237551
32.530000	91.174729
32.540000	91.211405
32.550000	91.063914
32.560000	90.981608
32.570000	91.597751
32.580000	91.695194
32.590000	91.636115
32.600000	91.379039
32.610000	91.465553
32.620000	91.337280
32.630000	91.228718
32.640000	90.712304
32.650000	90.844719
32.660000	90.876111
32.670000	90.917106
32.680000	90.782350
32.690000	90.654378
32.700000	90.687499
32.710000	90.807500
32.720000	90.839250
32.730000	90.411313
32.740000	90.744805
32.750000	91.166020
32.760000	91.163725
32.770000	90.971452
32.780000	91.325428
32.790000	91.101629
32.800000	91.429824
32.810000	91.800964
32.820000	92.000453
32.830000	92.086960
32.840000	91.985063
32.850000	91.644034
32.860000	91.626034
32.870000	91.076383
32.880000	91.005563
32.890000	90.802478
32.900000	90.977390
32.910000	90.825229
32.920000	91.183077
32.930000	91.421110
32.940000	91.166186
32.950000	91.245348
32.960000	91.099894
32.970000	91.164349
32.980000	91.048062
32.990000	90.942442
33.000000	91.011604
33.010000	90.671344
33.020000	90.586322
33.030000	90.686649
33.040000	90.593615
33.050000	90.508694
33.060000	90.386791
33.070000	90.618764
33.080000	90.408212
33.090000	90.687237
33.100000	90.705114
33.110000	90.578856
33.120000	90.438069
33.130000	90.646427
33.140000	90.730942
33.150000	90.669474
33.160000	90.627440
33.170000	91.035429
33.180000	90.725542
33.190000	90.808871
33.200000	90.837352
33.210000	90.833099
33.220000	90.915585
33.230000	90.793612
33.240000	90.692941
33.250000	90.203839
33.260000	90.400043
33.270000	90.588977
33.280000	90.610087
33.290000	90.438409
33.300000	90.383454
33.310000	90.817907
33.320000	90.853647
33.330000	91.071557
33.340000	91.118666
33.350000	91.145980
33.360000	91.244193
33.370000	91.345782
33.380000	90.845800
33.390000	90.803065
33.400000	90.720493
33.410000	90.778113
33.420000	90.869368
33.430000	90.821331
33.440000	90.699905
33.450000	90.235026
33.460000	90.044213
33.470000	90.434313
33.480000	90.353754
33.490000	90.717046
33.500000	90.675084
33.510000	90.443471
33.520000	90.751895
33.530000	90.751055
33.540000	90.558409
33.550000	90.806099
33.560000	91.007581
33.570000	91.181943
33.580000	90.907035
33.590000	91.161444
33.600000	91.225686
33.610000	90.645250
33.620000	90.741403
33.630000	90.558547
33.640000	90.441778
33.650000	90.496811
33.660000	90.594153
33.670000	90.245159
33.680000	89.978666
33.690000	90.437209
33.700000	90.603382
33.710000	90.779228
33.720000	90.621036
33.730000	90.463061
33.740000	90.140572
33.750000	90.229686
33.760000	90.316865
33.770000	90.035140
33.780000	90.135800
33.790000	89.979462
33.800000	90.132836
33.810000	90.357161
33.820000	90.160824
33.830000	90.137093
33.840000	90.206166
33.850000	90.061912
33.860000	90.185556
33.870000	90.609177
33.880000	90.228164
33.890000	90.477240
33.900000	90.413512
33.910000	90.421886
33.920000	90.587727
33.930000	90.165414
33.940000	90.588581
33.950000	90.618494
33.960000	90.253879
33.970000	90.339148
33.980000	90.345819
33.990000	90.143798
34.000000	90.232755
34.010000	90.161701
34.020000	90.118377
34.030000	90.110886
34.040000	90.501443
34.050000	90.613014
34.060000	90.423844
34.070000	90.367598
34.080000	90.694384
34.090000	90.842529
34.100000	90.429411
34.110000	90.310123
34.120000	90.403645
34.130000	90.061270
34.140000	90.237177
34.150000	90.110106
34.160000	89.974071
34.170000	90.089409
34.180000	90.021267
34.190000	89.982838
34.200000	89.928399
34.210000	89.888449
34.220000	90.291710
34.230000	90.213107
34.240000	90.266900
34.250000	90.328427
34.260000	90.348673
34.270000	90.219627
34.280000	90.464873
34.290000	90.832879
34.300000	90.777021
34.310000	90.894596
34.320000	90.986422
34.330000	90.335302
34.340000	89.913536
34.350000	90.074676
34.360000	89.914561
34.370000	89.907043
34.380000	90.020151
34.390000	90.258150
34.400000	90.482505
34.410000	90.637693
34.420000	90.191723
34.430000	90.097872
34.440000	90.714724
34.450000	90.746778
34.460000	90.771421
34.470000	90.737908
34.480000	90.201745
34.490000	89.944564
34.500000	90.456602
34.510000	90.064144
34.520000	89.944817
34.530000	89.621141
34.540000	89.580480
34.550000	89.524826
34.560000	89.382262
34.570000	89.656894
34.580000	89.812944
34.590000	89.945165
34.600000	90.003702
34.610000	89.988548
34.620000	89.671545
34.630000	89.949719
34.640000	89.916270
34.650000	89.799786
34.660000	89.812188
34.670000	89.888753
34.680000	89.896675
34.690000	89.811290
34.700000	89.578466
34.710000	89.653062
34.720000	89.801291
34.730000	89.534720
34.740000	90.009082
34.750000	90.351745
34.760000	89.870371
34.770000	90.361171
34.780000	89.973545
34.790000	89.345279
34.800000	89.389416
34.810000	89.830464
34.820000	89.543517
34.830000	89.822697
34.840000	89.716865
34.850000	89.422568
34.860000	89.615331
34.870000	89.596155
34.880000	89.150911
34.890000	89.355771
34.900000	89.933561
34.910000	89.425973
34.920000	89.587210
34.930000	89.666526
34.940000	89.956979
34.950000	89.524582
34.960000	89.747835
34.970000	90.315056
34.980000	89.579881
34.990000	89.558332
35.000000	89.923335
35.010000	89.810951
35.020000	89.518951
35.030000	89.658782
35.040000	89.650474
35.050000	89.651787
35.060000	89.526513
35.070000	89.499715
35.080000	89.382180
35.090000	89.666688
35.100000	89.938703
35.110000	89.718012
35.120000	89.456809
35.130000	88.936931
35.140000	89.441386
35.150000	89.579472
35.160000	90.263853
35.170000	89.711688
35.180000	89.607677
35.190000	89.727183
35.200000	89.428885
35.210000	89.262374
35.220000	89.588712
35.230000	89.310329
35.240000	89.467254
35.250000	88.976830
35.260000	89.651449
35.270000	89.517827
35.280000	89.073481
35.290000	88.987523
35.300000	88.714481
35.310000	88.908797
35.320000	89.041987
35.330000	89.124517
35.340000	88.848945
35.350000	89.231050
35.360000	89.652806
35.370000	89.060098
35.380000	88.761753
35.390000	89.407779
35.400000	89.275900
35.410000	88.971254
35.420000	89.249491
35.430000	89.365788
35.440000	89.367877
35.450000	89.383705
35.460000	89.155145
35.470000	89.383945
35.480000	89.215615
35.490000	89.403721
35.500000	89.339344
35.510000	89.570815
35.520000	89.199408
35.530000	89.213073
35.540000	89.247188
35.550000	89.065862
35.560000	89.155868
35.570000	88.696737
35.580000	88.589182
35.590000	88.708733
35.600000	88.870802
35.610000	88.724441
35.620000	88.670361
35.630000	88.254032
35.640000	88.803878
35.650000	88.346856
35.660000	88.283466
35.670000	88.597056
35.680000	89.343306
35.690000	89.240556
35.700000	88.800750
35.710000	88.719170
35.720000	88.394877
35.730000	88.680866
35.740000	88.554366
35.750000	88.910921
35.760000	88.324407
35.770000	88.454748
35.780000	88.249457
35.790000	88.411007
35.800000	88.988151
35.810000	88.241500
35.820000	88.014485
35.830000	88.122730
35.840000	87.781667
35.850000	88.321906
35.860000	88.322126
35.870000	88.487595
35.880000	87.948687
35.890000	88.572210
35.900000	88.478761
35.910000	88.137706
35.920000	88.517733
35.930000	87.980546
35.940000	88.146555
35.950000	88.440687
35.960000	88.482828
35.970000	88.758373
35.980000	87.995510
35.990000	88.190123
36.000000	87.874121
36.010000	87.646134
36.020000	87.615267
36.030000	88.117709
36.040000	88.049340
36.050000	88.708051
36.060000	88.356649
36.070000	88.066415
36.080000	88.115773
36.090000	87.632871
36.100000	88.122382
36.110000	88.515274
36.120000	88.458179
36.130000	87.932864
36.140000	87.916637
36.150000	87.433109
36.160000	88.013360
36.170000	88.048681
36.180000	87.981726
36.190000	87.630918
36.200000	87.446616
36.210000	87.770968
36.220000	88.015603
36.230000	88.388839
36.240000	88.437605
36.250000	87.838702
36.260000	87.527462
36.270000	87.169043
36.280000	87.058282
36.290000	87.730827
36.300000	87.697840
36.310000	88.009963
36.320000	87.691517
36.330000	87.302815
36.340000	87.369747
36.350000	88.097374
36.360000	88.214723
36.370000	88.077259
36.380000	87.859873
36.390000	87.258237
36.400000	87.962619
36.410000	88.729491
36.420000	88.595852
36.430000	87.634964
36.440000	88.147158
36.450000	87.682903
36.460000	87.866247
36.470000	87.608888
36.480000	87.810604
36.490000	87.024363
36.500000	87.677028
36.510000	87.806057
36.520000	87.374117
36.530000	87.857319
36.540000	87.590779
36.550000	87.388568
36.560000	87.761181
36.570000	87.418224
36.580000	87.428366
36.590000	87.226944
36.600000	87.091599
36.610000	87.276733
36.620000	87.376677
36.630000	86.800495
36.640000	87.274726
36.650000	86.750450
36.660000	87.602563
36.670000	87.017320
36.680000	86.811672
36.690000	86.628088
36.700000	87.555800
36.710000	86.866302
36.720000	87.323011
36.730000	87.484625
36.740000	86.753322
36.750000	86.867310
36.760000	87.082996
36.770000	87.035597
36.780000	87.316559
36.790000	87.175664
36.800000	86.940052
36.810000	86.871533
36.820000	86.617435
36.830000	86.935557
36.840000	86.239123
36.850000	86.575996
36.860000	86.600720
36.870000	87.292318
36.880000	87.360038
36.890000	87.127986
36.900000	87.169789
36.910000	86.643073
36.920000	86.766929
36.930000	86.642493
36.940000	86.804922
36.950000	87.355280
36.960000	86.302466
36.970000	86.096756
36.980000	86.017490
36.990000	86.788686
37.000000	86.719617
37.010000	86.683870
37.020000	86.458780
37.030000	86.122976
37.040000	85.959855
37.050000	86.650174
37.060000	86.264703
37.070000	85.777449
37.080000	87.252282
37.090000	87.463918
37.100000	85.623432
37.110000	86.044561
37.120000	86.253361
37.130000	87.194884
37.140000	87.353229
37.150000	86.524807
37.160000	86.696498
37.170000	86.154651
37.180000	86.497597
37.190000	86.025940
37.200000	86.446482
37.210000	87.002916
37.220000	86.716464
37.230000	86.143043
37.240000	86.140623
37.250000	86.474990
37.260000	85.962465
37.270000	86.210256
37.280000	86.545824
37.290000	86.580942
37.300000	85.906334
37.310000	86.148051
37.320000	86.703438
37.330000	86.571298
37.340000	86.222127
37.350000	86.554605
37.360000	85.471021
37.370000	85.420527
37.380000	85.773062
37.390000	85.632133
37.400000	85.805238
37.410000	86.161061
37.420000	85.040214
37.430000	85.239220
37.440000	86.689342
37.450000	86.288957
37.460000	85.551555
37.470000	86.156294
37.480000	86.526392
37.490000	85.538006
37.500000	85.412496
37.510000	85.859794
37.520000	85.221894
37.530000	85.738829
37.540000	85.006511
37.550000	85.179183
37.560000	84.958886
37.570000	85.781903
37.580000	85.675288
37.590000	86.189576
37.600000	86.720507
37.610000	86.654725
37.620000	85.703223
37.630000	85.229421
37.640000	85.644628
37.650000	86.237522
37.660000	85.723598
37.670000	84.660357
37.680000	84.696544
37.690000	85.995936
37.700000	86.104871
37.710000	85.273501
37.720000	85.047996
37.730000	84.983410
37.740000	84.787204
37.750000	85.592785
37.760000	86.195956
37.770000	84.483851
37.780000	85.890937
37.790000	85.878789
37.800000	86.120489
37.810000	84.667824
37.820000	84.141253
37.830000	84.576101
37.840000	85.346590
37.850000	85.621943
37.860000	84.912044
37.870000	85.700746
37.880000	86.141704
37.890000	85.410577
37.900000	85.336457
37.910000	84.613296
37.920000	85.192138
37.930000	85.302437
37.940000	85.726625
37.950000	85.626530
37.960000	84.947306
37.970000	83.877020
37.980000	84.886963
37.990000	85.109386
38.000000	85.859580
38.010000	84.791409
38.020000	84.263352
38.030000	84.380843
38.040000	84.928057
38.050000	85.223924
38.060000	85.811215
38.070000	86.789110
38.080000	86.212926
38.090000	84.626483
38.100000	84.691265
38.110000	85.624246
38.120000	85.129284
38.130000	85.675611
38.140000	84.518471
38.150000	84.196194
38.160000	84.383781
38.170000	84.020995
38.180000	84.856000
38.190000	83.677258
38.200000	85.743869
38.210000	85.559027
38.220000	83.891267
38.230000	83.762932
38.240000	83.766944
38.250000	84.059532
38.260000	84.554953
38.270000	84.214757
38.280000	83.102543
38.290000	84.423755
38.300000	84.883349
38.310000	85.197644
38.320000	84.569450
38.330000	83.849184
38.340000	83.702086
38.350000	83.634930
38.360000	84.880553
38.370000	83.802725
38.380000	83.869495
38.390000	84.994380
38.400000	83.107087
