[DEFAULT]

version = diffpy.pdfgetx-2.4.0

# input and output specifications
dataformat = twotheta
inputfile = Si_pe2_i15_1.xy
outputtype = sq

# PDF calculation setup
mode = xray
wavelength = 0.16
twothetazero = 0
composition = Si
bgscales = 1.0
rpoly = 0.9
qmaxinst = 20
qmin = 0
qmax = 20
rmin = 0
rmax = 20
rstep = 0.01

# End of config --------------------------------------------------------------

#### start data
#S 1
#L Q(Å$^{-1}$)  S(a.u.)
0 0.94227
0.00677844 0.947519
0.0135569 0.948608
0.0203353 0.948216
0.0271137 0.947026
0.0338922 0.945939
0.0406706 0.945308
0.0474491 0.944382
0.0542275 0.943961
0.0610059 0.943741
0.0677844 0.94305
0.0745628 0.941874
0.0813412 0.941461
0.0881197 0.941293
0.0948981 0.9421
0.101677 0.944531
0.108455 0.947502
0.115233 0.949161
0.122012 0.949807
0.12879 0.950386
0.135569 0.951699
0.142347 0.953733
0.149126 0.95609
0.155904 0.958123
0.162682 0.959839
0.169461 0.961369
0.176239 0.962964
0.183018 0.964165
0.189796 0.965072
0.196575 0.966117
0.203353 0.966732
0.210132 0.967113
0.21691 0.96767
0.223688 0.968111
0.230467 0.968182
0.237245 0.967925
0.244024 0.967775
0.250802 0.967624
0.257581 0.967231
0.264359 0.966626
0.271137 0.965993
0.277916 0.965413
0.284694 0.964834
0.291473 0.964337
0.298251 0.963889
0.30503 0.96328
0.311808 0.962535
0.318587 0.961866
0.325365 0.961354
0.332143 0.960976
0.338922 0.960722
0.3457 0.960491
0.352479 0.960198
0.359257 0.959953
0.366036 0.959861
0.372814 0.959904
0.379592 0.95995
0.386371 0.959836
0.393149 0.959774
0.399928 0.9599
0.406706 0.960107
0.413485 0.960258
0.420263 0.96022
0.427042 0.960144
0.43382 0.960018
0.440598 0.959918
0.447377 0.959613
0.454155 0.959312
0.460934 0.959224
0.467712 0.95885
0.474491 0.958465
0.481269 0.958347
0.488047 0.957994
0.494826 0.957514
0.501604 0.957122
0.508383 0.956677
0.515161 0.95631
0.52194 0.956036
0.528718 0.955695
0.535497 0.955326
0.542275 0.954922
0.549053 0.954512
0.555832 0.954063
0.56261 0.953644
0.569389 0.953222
0.576167 0.952841
0.582946 0.95251
0.589724 0.95224
0.596502 0.952077
0.603281 0.951681
0.610059 0.951394
0.616838 0.951021
0.623616 0.950738
0.630395 0.950414
0.637173 0.950023
0.643952 0.949897
0.65073 0.949494
0.657508 0.949056
0.664287 0.948681
0.671065 0.948489
0.677844 0.948191
0.684622 0.947875
0.691401 0.947682
0.698179 0.947433
0.704957 0.947109
0.711736 0.946691
0.718514 0.946589
0.725293 0.946543
0.732071 0.946285
0.73885 0.945925
0.745628 0.945685
0.752407 0.945526
0.759185 0.94535
0.765963 0.945215
0.772742 0.944873
0.77952 0.944586
0.786299 0.944268
0.793077 0.943918
0.799856 0.943726
0.806634 0.943677
0.813412 0.943525
0.820191 0.943326
0.826969 0.943219
0.833748 0.943078
0.840526 0.942832
0.847305 0.942508
0.854083 0.942231
0.860862 0.942109
0.86764 0.942044
0.874418 0.941907
0.881197 0.941699
0.887975 0.941611
0.894754 0.941619
0.901532 0.941581
0.908311 0.941448
0.915089 0.941226
0.921867 0.941104
0.928646 0.941091
0.935424 0.941152
0.942203 0.941219
0.948981 0.941197
0.95576 0.94117
0.962538 0.94104
0.969317 0.940847
0.976095 0.94077
0.982873 0.940783
0.989652 0.940888
0.99643 0.94103
1.00321 0.941004
1.00999 0.941008
1.01677 0.941221
1.02354 0.941399
1.03032 0.941426
1.0371 0.941425
1.04388 0.941559
1.05066 0.941708
1.05744 0.941963
1.06421 0.942284
1.07099 0.942683
1.07777 0.942975
1.08455 0.943107
1.09133 0.943436
1.09811 0.943852
1.10489 0.944079
1.11166 0.944303
1.11844 0.944595
1.12522 0.945046
1.132 0.945573
1.13878 0.945989
1.14556 0.946459
1.15233 0.947071
1.15911 0.947739
1.16589 0.948153
1.17267 0.9486
1.17945 0.949224
1.18623 0.949988
1.193 0.950654
1.19978 0.951184
1.20656 0.951964
1.21334 0.952827
1.22012 0.953636
1.2269 0.954727
1.23368 0.955817
1.24045 0.956457
1.24723 0.957316
1.25401 0.958355
1.26079 0.959457
1.26757 0.960522
1.27435 0.961656
1.28112 0.962758
1.2879 0.963833
1.29468 0.964941
1.30146 0.966137
1.30824 0.967444
1.31502 0.96869
1.3218 0.970173
1.32857 0.971529
1.33535 0.972835
1.34213 0.974212
1.34891 0.975519
1.35569 0.976843
1.36247 0.978443
1.36924 0.980075
1.37602 0.981506
1.3828 0.98285
1.38958 0.984162
1.39636 0.985546
1.40314 0.987035
1.40991 0.988464
1.41669 0.989986
1.42347 0.991516
1.43025 0.992832
1.43703 0.994033
1.44381 0.99528
1.45059 0.996562
1.45736 0.997848
1.46414 0.999067
1.47092 1.00026
1.4777 1.00153
1.48448 1.00265
1.49126 1.00348
1.49803 1.00405
1.50481 1.00464
1.51159 1.0053
1.51837 1.0059
1.52515 1.00634
1.53193 1.00675
1.53871 1.00727
1.54548 1.00759
1.55226 1.00759
1.55904 1.00757
1.56582 1.00758
1.5726 1.00754
1.57938 1.00753
1.58615 1.00746
1.59293 1.00718
1.59971 1.00686
1.60649 1.00647
1.61327 1.00594
1.62005 1.00531
1.62682 1.00455
1.6336 1.00375
1.64038 1.00294
1.64716 1.00212
1.65394 1.00118
1.66072 1.0002
1.6675 0.999273
1.67427 0.998198
1.68105 0.997163
1.68783 0.996206
1.69461 0.995104
1.70139 0.993993
1.70817 0.992874
1.71494 0.991705
1.72172 0.990338
1.7285 0.988929
1.73528 0.987752
1.74206 0.9866
1.74884 0.985593
1.75562 0.984538
1.76239 0.983415
1.76917 0.982346
1.77595 0.981301
1.78273 0.980295
1.78951 0.97938
1.79629 0.978572
1.80306 0.977583
1.80984 0.976579
1.81662 0.975963
1.8234 0.97536
1.83018 0.974392
1.83696 0.9734
1.84373 0.972517
1.85051 0.971752
1.85729 0.971188
1.86407 0.970511
1.87085 0.96986
1.87763 0.969323
1.88441 0.969021
1.89118 0.968945
1.89796 0.968914
1.90474 0.969051
1.91152 0.969364
1.9183 0.969572
1.92508 0.970061
1.93185 0.970759
1.93863 0.971584
1.94541 0.972601
1.95219 0.974078
1.95897 0.976127
1.96575 0.978957
1.97253 0.984087
1.9793 0.99416
1.98608 1.01653
1.99286 1.0736
1.99964 1.22664
2.00642 1.63289
2.0132 2.54206
2.01997 3.76637
2.02675 4.11642
2.03353 3.1973
2.04031 2.0912
2.04709 1.43941
2.05387 1.15639
2.06064 1.04482
2.06742 1.00041
2.0742 0.981122
2.08098 0.971251
2.08776 0.965301
2.09454 0.961246
2.10132 0.958088
2.10809 0.955297
2.11487 0.952693
2.12165 0.950178
2.12843 0.947637
2.13521 0.945244
2.14199 0.943127
2.14876 0.941204
2.15554 0.939412
2.16232 0.937781
2.1691 0.936332
2.17588 0.934954
2.18266 0.933527
2.18944 0.932034
2.19621 0.930668
2.20299 0.929524
2.20977 0.928492
2.21655 0.927497
2.22333 0.926458
2.23011 0.9254
2.23688 0.924485
2.24366 0.923666
2.25044 0.922725
2.25722 0.921915
2.264 0.921293
2.27078 0.92072
2.27755 0.920231
2.28433 0.919629
2.29111 0.918968
2.29789 0.918222
2.30467 0.917357
2.31145 0.916543
2.31823 0.915858
2.325 0.915243
2.33178 0.914625
2.33856 0.914075
2.34534 0.913696
2.35212 0.913156
2.3589 0.912614
2.36567 0.912182
2.37245 0.911796
2.37923 0.911456
2.38601 0.911015
2.39279 0.910443
2.39957 0.910148
2.40635 0.909705
2.41312 0.909147
2.4199 0.908538
2.42668 0.908008
2.43346 0.907592
2.44024 0.907316
2.44702 0.906802
2.45379 0.906373
2.46057 0.906001
2.46735 0.90568
2.47413 0.905387
2.48091 0.905117
2.48769 0.90497
2.49446 0.904784
2.50124 0.904627
2.50802 0.904705
2.5148 0.904851
2.52158 0.904608
2.52836 0.90384
2.53514 0.903085
2.54191 0.902606
2.54869 0.902097
2.55547 0.901569
2.56225 0.901147
2.56903 0.90079
2.57581 0.90074
2.58258 0.900692
2.58936 0.900361
2.59614 0.89983
2.60292 0.899384
2.6097 0.899225
2.61648 0.899068
2.62326 0.898533
2.63003 0.898121
2.63681 0.897872
2.64359 0.897586
2.65037 0.897214
2.65715 0.896924
2.66393 0.896671
2.6707 0.89635
2.67748 0.896106
2.68426 0.895863
2.69104 0.895534
2.69782 0.895218
2.7046 0.894934
2.71137 0.894777
2.71815 0.89455
2.72493 0.894264
2.73171 0.893947
2.73849 0.893782
2.74527 0.893855
2.75205 0.893858
2.75882 0.89381
2.7656 0.893775
2.77238 0.893678
2.77916 0.893539
2.78594 0.893461
2.79272 0.89355
2.79949 0.893642
2.80627 0.893581
2.81305 0.89341
2.81983 0.893297
2.82661 0.893283
2.83339 0.893318
2.84017 0.893396
2.84694 0.893504
2.85372 0.893644
2.8605 0.893721
2.86728 0.893759
2.87406 0.89388
2.88084 0.893962
2.88761 0.894052
2.89439 0.894326
2.90117 0.894626
2.90795 0.894812
2.91473 0.894905
2.92151 0.895153
2.92828 0.895415
2.93506 0.895537
2.94184 0.895767
2.94862 0.896057
2.9554 0.896484
2.96218 0.89687
2.96896 0.89716
2.97573 0.89736
2.98251 0.897468
2.98929 0.897796
2.99607 0.897915
3.00285 0.897886
3.00963 0.898047
3.0164 0.898442
3.02318 0.898792
3.02996 0.899235
3.03674 0.899449
3.04352 0.899576
3.0503 0.899769
3.05708 0.900084
3.06385 0.900409
3.07063 0.900795
3.07741 0.901145
3.08419 0.901548
3.09097 0.902054
3.09775 0.902587
3.10452 0.903134
3.1113 0.903782
3.11808 0.904427
3.12486 0.905115
3.13164 0.906035
3.13842 0.907006
3.14519 0.90831
3.15197 0.909479
3.15875 0.910668
3.16553 0.91156
3.17231 0.912024
3.17909 0.912597
3.18587 0.913316
3.19264 0.914544
3.19942 0.915989
3.2062 0.917426
3.21298 0.919011
3.21976 0.920956
3.22654 0.923065
3.23331 0.925594
3.24009 0.928657
3.24687 0.932729
3.25365 0.939
3.26043 0.95073
3.26721 0.975738
3.27399 1.03733
3.28076 1.20037
3.28754 1.62178
3.29432 2.53665
3.3011 3.72338
3.30788 4.05944
3.31466 3.19089
3.32143 2.10721
3.32821 1.44099
3.33499 1.14063
3.34177 1.01985
3.34855 0.971761
3.35533 0.951311
3.3621 0.941442
3.36888 0.935928
3.37566 0.932371
3.38244 0.929508
3.38922 0.92705
3.396 0.925022
3.40278 0.923265
3.40955 0.921566
3.41633 0.919986
3.42311 0.918556
3.42989 0.917294
3.43667 0.916187
3.44345 0.915233
3.45022 0.914278
3.457 0.913207
3.46378 0.912131
3.47056 0.911197
3.47734 0.910396
3.48412 0.909689
3.4909 0.909103
3.49767 0.908698
3.50445 0.908327
3.51123 0.907689
3.51801 0.907086
3.52479 0.906719
3.53157 0.906316
3.53834 0.905977
3.54512 0.905724
3.5519 0.905416
3.55868 0.905081
3.56546 0.904815
3.57224 0.904543
3.57901 0.904393
3.58579 0.904404
3.59257 0.904354
3.59935 0.904362
3.60613 0.904394
3.61291 0.904382
3.61969 0.90447
3.62646 0.904647
3.63324 0.904905
3.64002 0.90525
3.6468 0.905671
3.65358 0.905806
3.66036 0.905606
3.66713 0.905452
3.67391 0.90536
3.68069 0.9055
3.68747 0.905604
3.69425 0.905866
3.70103 0.906202
3.70781 0.906583
3.71458 0.907059
3.72136 0.907554
3.72814 0.908009
3.73492 0.908469
3.7417 0.908953
3.74848 0.90956
3.75525 0.910429
3.76203 0.911421
3.76881 0.912432
3.77559 0.913272
3.78237 0.914197
3.78915 0.915658
3.79592 0.917201
3.8027 0.91917
3.80948 0.921291
3.81626 0.923967
3.82304 0.928199
3.82982 0.93563
3.8366 0.950839
3.84337 0.987586
3.85015 1.083
3.85693 1.32964
3.86371 1.89356
3.87049 2.74004
3.87727 3.14482
3.88404 2.6261
3.89082 1.83351
3.8976 1.32528
3.90438 1.09065
3.91116 0.994454
3.91794 0.955846
3.92472 0.939715
3.93149 0.932148
3.93827 0.92808
3.94505 0.925509
3.95183 0.923549
3.95861 0.921864
3.96539 0.920644
3.97216 0.91947
3.97894 0.918398
3.98572 0.917582
3.9925 0.916749
3.99928 0.915945
4.00606 0.91536
4.01283 0.914831
4.01961 0.914202
4.02639 0.913598
4.03317 0.913283
4.03995 0.913127
4.04673 0.913043
4.05351 0.912723
4.06028 0.912175
4.06706 0.911801
4.07384 0.911544
4.08062 0.911269
4.0874 0.911015
4.09418 0.910867
4.10095 0.910785
4.10773 0.910752
4.11451 0.910729
4.12129 0.9106
4.12807 0.910452
4.13485 0.910499
4.14163 0.910602
4.1484 0.910666
4.15518 0.910794
4.16196 0.910961
4.16874 0.911133
4.17552 0.911198
4.1823 0.911281
4.18907 0.911351
4.19585 0.911295
4.20263 0.911409
4.20941 0.911762
4.21619 0.912194
4.22297 0.912544
4.22974 0.912731
4.23652 0.912836
4.2433 0.912987
4.25008 0.91311
4.25686 0.913173
4.26364 0.913222
4.27042 0.913199
4.27719 0.913251
4.28397 0.913245
4.29075 0.91334
4.29753 0.913611
4.30431 0.91391
4.31109 0.914049
4.31786 0.91421
4.32464 0.914339
4.33142 0.914447
4.3382 0.914594
4.34498 0.914762
4.35176 0.914863
4.35854 0.915162
4.36531 0.915505
4.37209 0.915732
4.37887 0.915856
4.38565 0.915953
4.39243 0.916059
4.39921 0.916345
4.40598 0.916741
4.41276 0.916919
4.41954 0.916932
4.42632 0.917259
4.4331 0.917712
4.43988 0.918005
4.44665 0.918242
4.45343 0.918634
4.46021 0.919053
4.46699 0.919235
4.47377 0.91957
4.48055 0.919943
4.48733 0.920263
4.4941 0.920723
4.50088 0.920924
4.50766 0.921181
4.51444 0.921509
4.52122 0.921652
4.528 0.921957
4.53477 0.922249
4.54155 0.922704
4.54833 0.922961
4.55511 0.923231
4.56189 0.923718
4.56867 0.924324
4.57545 0.924975
4.58222 0.925395
4.589 0.92582
4.59578 0.926322
4.60256 0.927043
4.60934 0.927655
4.61612 0.928733
4.62289 0.930607
4.62967 0.933633
4.63645 0.940187
4.64323 0.956507
4.65001 0.998694
4.65679 1.10271
4.66356 1.31343
4.67034 1.5647
4.67712 1.629
4.6839 1.44418
4.69068 1.20651
4.69746 1.05416
4.70424 0.98262
4.71101 0.952784
4.71779 0.940793
4.72457 0.935918
4.73135 0.933737
4.73813 0.932518
4.74491 0.931819
4.75168 0.93125
4.75846 0.930541
4.76524 0.930087
4.77202 0.929783
4.7788 0.929585
4.78558 0.929634
4.79236 0.929588
4.79913 0.929437
4.80591 0.929346
4.81269 0.92918
4.81947 0.929044
4.82625 0.929248
4.83303 0.929462
4.8398 0.929526
4.84658 0.929704
4.85336 0.929983
4.86014 0.930211
4.86692 0.930426
4.8737 0.930578
4.88047 0.930626
4.88725 0.930682
4.89403 0.930845
4.90081 0.931124
4.90759 0.931505
4.91437 0.931928
4.92115 0.93237
4.92792 0.932709
4.9347 0.932941
4.94148 0.933329
4.94826 0.933824
4.95504 0.934442
4.96182 0.935196
4.96859 0.935854
4.97537 0.93643
4.98215 0.93702
4.98893 0.937727
4.99571 0.938374
5.00249 0.939006
5.00927 0.939947
5.01604 0.941122
5.02282 0.942495
5.0296 0.944157
5.03638 0.946316
5.04316 0.949628
5.04994 0.955771
5.05671 0.969361
5.06349 1.00292
5.07027 1.08822
5.07705 1.28774
5.08383 1.64882
5.09061 2.0352
5.09738 2.10991
5.10416 1.78731
5.11094 1.38517
5.11772 1.13912
5.1245 1.02874
5.13128 0.983232
5.13806 0.964841
5.14483 0.957072
5.15161 0.953467
5.15839 0.951257
5.16517 0.949884
5.17195 0.948945
5.17873 0.948138
5.1855 0.947415
5.19228 0.946944
5.19906 0.946454
5.20584 0.945981
5.21262 0.945697
5.2194 0.945216
5.22618 0.944757
5.23295 0.944321
5.23973 0.943719
5.24651 0.943307
5.25329 0.943295
5.26007 0.943037
5.26685 0.942909
5.27362 0.942556
5.2804 0.942113
5.28718 0.941921
5.29396 0.941656
5.30074 0.941323
5.30752 0.94093
5.31429 0.940537
5.32107 0.940221
5.32785 0.940008
5.33463 0.93985
5.34141 0.939674
5.34819 0.939483
5.35497 0.939338
5.36174 0.938997
5.36852 0.938639
5.3753 0.938345
5.38208 0.938126
5.38886 0.937973
5.39564 0.937631
5.40241 0.937419
5.40919 0.937357
5.41597 0.937226
5.42275 0.936918
5.42953 0.936528
5.43631 0.93614
5.44309 0.936045
5.44986 0.935957
5.45664 0.935821
5.46342 0.935491
5.4702 0.935288
5.47698 0.935061
5.48376 0.934776
5.49053 0.934645
5.49731 0.934577
5.50409 0.934356
5.51087 0.934147
5.51765 0.934021
5.52443 0.933809
5.5312 0.933515
5.53798 0.933415
5.54476 0.933503
5.55154 0.933542
5.55832 0.933398
5.5651 0.933527
5.57188 0.933828
5.57865 0.93395
5.58543 0.933895
5.59221 0.93393
5.59899 0.93429
5.60577 0.934682
5.61255 0.935064
5.61932 0.935643
5.6261 0.93613
5.63288 0.936703
5.63966 0.937552
5.64644 0.938671
5.65322 0.940031
5.66 0.941697
5.66677 0.944096
5.67355 0.94847
5.68033 0.957164
5.68711 0.976164
5.69389 1.02322
5.70067 1.14286
5.70744 1.42333
5.71422 1.93196
5.721 2.48347
5.72778 2.64124
5.73456 2.25441
5.74134 1.68258
5.74811 1.2815
5.75489 1.08679
5.76167 1.00398
5.76845 0.969548
5.77523 0.954736
5.78201 0.947757
5.78879 0.943767
5.79556 0.941206
5.80234 0.939514
5.80912 0.938048
5.8159 0.936621
5.82268 0.935288
5.82946 0.934288
5.83623 0.933364
5.84301 0.93239
5.84979 0.931538
5.85657 0.930808
5.86335 0.930133
5.87013 0.929395
5.87691 0.928786
5.88368 0.928331
5.89046 0.927828
5.89724 0.927407
5.90402 0.927244
5.9108 0.927111
5.91758 0.926847
5.92435 0.9265
5.93113 0.926235
5.93791 0.926224
5.94469 0.926276
5.95147 0.926401
5.95825 0.926627
5.96502 0.926825
5.9718 0.926769
5.97858 0.927097
5.98536 0.927502
5.99214 0.928261
5.99892 0.929039
6.0057 0.929641
6.01247 0.930856
6.01925 0.933078
6.02603 0.937104
6.03281 0.945637
6.03959 0.96622
6.04637 1.01858
6.05314 1.14603
6.05992 1.40821
6.0667 1.76432
6.07348 1.94823
6.08026 1.7731
6.08704 1.4204
6.09382 1.15668
6.10059 1.02764
6.10737 0.971839
6.11415 0.948593
6.12093 0.938704
6.12771 0.93395
6.13449 0.931526
6.14126 0.930138
6.14804 0.928981
6.15482 0.928196
6.1616 0.927566
6.16838 0.926553
6.17516 0.92582
6.18193 0.925819
6.18871 0.925629
6.19549 0.924808
6.20227 0.924199
6.20905 0.923549
6.21583 0.92321
6.22261 0.923221
6.22938 0.923083
6.23616 0.922923
6.24294 0.922853
6.24972 0.922632
6.2565 0.922605
6.26328 0.922334
6.27005 0.921805
6.27683 0.921522
6.28361 0.921576
6.29039 0.921494
6.29717 0.921577
6.30395 0.921822
6.31073 0.921659
6.3175 0.921593
6.32428 0.921722
6.33106 0.921758
6.33784 0.921845
6.34462 0.921857
6.3514 0.921953
6.35817 0.921992
6.36495 0.921973
6.37173 0.921924
6.37851 0.921918
6.38529 0.922137
6.39207 0.922219
6.39884 0.922309
6.40562 0.922453
6.4124 0.922675
6.41918 0.92284
6.42596 0.923286
6.43274 0.923683
6.43952 0.923823
6.44629 0.924005
6.45307 0.924145
6.45985 0.924374
6.46663 0.924595
6.47341 0.924709
6.48019 0.924809
6.48696 0.925058
6.49374 0.9255
6.50052 0.926091
6.5073 0.926601
6.51408 0.927039
6.52086 0.927466
6.52764 0.927928
6.53441 0.928513
6.54119 0.929324
6.54797 0.930477
6.55475 0.931767
6.56153 0.933714
6.56831 0.938074
6.57508 0.948031
6.58186 0.971969
6.58864 1.03053
6.59542 1.15497
6.6022 1.34287
6.60898 1.49663
6.61575 1.49064
6.62253 1.33154
6.62931 1.14813
6.63609 1.031
6.64287 0.975752
6.64965 0.952059
6.65643 0.942157
6.6632 0.93792
6.66998 0.935709
6.67676 0.934595
6.68354 0.933933
6.69032 0.933508
6.6971 0.933344
6.70387 0.933017
6.71065 0.932781
6.71743 0.932589
6.72421 0.932356
6.73099 0.932127
6.73777 0.932053
6.74455 0.9321
6.75132 0.932076
6.7581 0.932245
6.76488 0.932309
6.77166 0.93248
6.77844 0.932475
6.78522 0.932479
6.79199 0.932716
6.79877 0.933141
6.80555 0.933619
6.81233 0.934072
6.81911 0.934459
6.82589 0.934862
6.83266 0.935467
6.83944 0.936264
6.84622 0.937272
6.853 0.93875
6.85978 0.941288
6.86656 0.945732
6.87334 0.95489
6.88011 0.976904
6.88689 1.03121
6.89367 1.16003
6.90045 1.41914
6.90723 1.7745
6.91401 1.995
6.92078 1.88142
6.92756 1.54032
6.93434 1.23548
6.94112 1.06969
6.9479 0.995035
6.95468 0.962864
6.96146 0.949476
6.96823 0.943345
6.97501 0.940193
6.98179 0.938255
6.98857 0.936573
6.99535 0.9352
7.00213 0.934373
7.0089 0.933874
7.01568 0.932921
7.02246 0.932347
7.02924 0.931681
7.03602 0.93095
7.0428 0.93024
7.04957 0.929679
7.05635 0.929131
7.06313 0.928795
7.06991 0.928467
7.07669 0.928262
7.08347 0.927842
7.09025 0.927534
7.09702 0.927219
7.1038 0.926988
7.11058 0.926725
7.11736 0.926195
7.12414 0.925731
7.13092 0.925411
7.13769 0.925324
7.14447 0.925301
7.15125 0.92499
7.15803 0.924909
7.16481 0.924931
7.17159 0.924814
7.17837 0.924841
7.18514 0.92477
7.19192 0.92486
7.1987 0.924957
7.20548 0.924823
7.21226 0.924789
7.21904 0.924954
7.22581 0.925106
7.23259 0.925245
7.23937 0.925359
7.24615 0.925588
7.25293 0.92556
7.25971 0.925848
7.26648 0.926435
7.27326 0.926832
7.28004 0.927178
7.28682 0.927648
7.2936 0.928009
7.30038 0.928572
7.30716 0.929192
7.31393 0.929623
7.32071 0.930396
7.32749 0.931691
7.33427 0.933386
7.34105 0.936352
7.34783 0.942359
7.3546 0.956004
7.36138 0.989715
7.36816 1.07029
7.37494 1.24017
7.38172 1.50178
7.3885 1.73031
7.39528 1.7559
7.40205 1.56096
7.40883 1.29909
7.41561 1.11009
7.42239 1.01249
7.42917 0.968655
7.43595 0.949748
7.44272 0.941511
7.4495 0.937798
7.45628 0.935962
7.46306 0.934676
7.46984 0.933667
7.47662 0.933044
7.48339 0.932431
7.49017 0.93178
7.49695 0.931487
7.50373 0.931387
7.51051 0.931116
7.51729 0.930674
7.52407 0.930334
7.53084 0.930162
7.53762 0.93016
7.5444 0.930273
7.55118 0.930239
7.55796 0.930226
7.56474 0.930363
7.57151 0.930604
7.57829 0.930605
7.58507 0.930621
7.59185 0.931103
7.59863 0.931747
7.60541 0.932508
7.61219 0.933812
7.61896 0.936538
7.62574 0.942209
7.63252 0.955622
7.6393 0.987882
7.64608 1.05653
7.65286 1.16822
7.65963 1.27995
7.66641 1.31241
7.67319 1.23972
7.67997 1.11988
7.68675 1.02481
7.69353 0.974246
7.7003 0.951666
7.70708 0.941996
7.71386 0.937998
7.72064 0.936193
7.72742 0.935372
7.7342 0.935024
7.74098 0.934564
7.74775 0.934119
7.75453 0.933723
7.76131 0.933486
7.76809 0.933413
7.77487 0.933725
7.78165 0.933882
7.78842 0.933573
7.7952 0.933595
7.80198 0.933567
7.80876 0.933739
7.81554 0.933525
7.82232 0.933614
7.8291 0.93394
7.83587 0.934023
7.84265 0.934259
7.84943 0.934469
7.85621 0.934244
7.86299 0.933975
7.86977 0.934407
7.87654 0.93482
7.88332 0.935024
